#Wave		#Intensity
1999.061523	110648.945312
1998.093750	110111.617188
1997.125977	110234.484375
1996.158203	110217.851562
1995.189453	110185.734375
1994.221680	110471.148438
1993.252930	111128.132812
1992.284180	110739.726562
1991.315430	110410.804688
1990.345703	110904.921875
1989.376953	110710.195312
1988.407227	111268.546875
1987.437500	111207.890625
1986.467773	110523.398438
1985.498047	110486.078125
1984.528320	110611.125000
1983.557617	111297.820312
1982.586914	110551.937500
1981.616211	111235.812500
1980.645508	110727.117188
1979.674805	111766.039062
1978.704102	111507.132812
1977.732422	111122.187500
1976.760742	111403.890625
1975.789062	110545.664062
1974.817383	110953.414062
1973.845703	111193.835938
1972.873047	110984.132812
1971.901367	111800.406250
1970.928711	111919.710938
1969.956055	111846.203125
1968.983398	111561.992188
1968.009766	111984.453125
1967.037109	112617.421875
1966.063477	111793.820312
1965.089844	112341.843750
1964.116211	112406.968750
1963.142578	112102.390625
1962.168945	112226.554688
1961.194336	112147.929688
1960.219727	112136.046875
1959.245117	112021.546875
1958.270508	111737.804688
1957.295898	111810.609375
1956.321289	112585.929688
1955.345703	111815.140625
1954.370117	112421.015625
1953.394531	112278.367188
1952.418945	111935.914062
1951.443359	112295.507812
1950.466797	112288.695312
1949.491211	112781.257812
1948.514648	112595.125000
1947.538086	112859.609375
1946.561523	112402.210938
1945.583984	111581.570312
1944.607422	112483.187500
1943.629883	112844.703125
1942.652344	112556.414062
1941.674805	112956.140625
1940.697266	113148.617188
1939.719727	112638.007812
1938.741211	112863.695312
1937.762695	112314.968750
1936.784180	112913.664062
1935.805664	113172.382812
1934.827148	112810.335938
1933.847656	113081.734375
1932.869141	113340.273438
1931.889648	112814.992188
1930.910156	112488.976562
1929.930664	112795.953125
1928.951172	112755.812500
1927.970703	113187.632812
1926.990234	113693.257812
1926.009766	112760.414062
1925.029297	112906.421875
1924.048828	113608.117188
1923.068359	113101.414062
1922.086914	112857.375000
1921.106445	113224.914062
1920.125000	113238.218750
1919.143555	112978.984375
1918.161133	113522.015625
1917.179688	114222.710938
1916.197266	113311.726562
1915.214844	112933.015625
1914.232422	113834.468750
1913.250000	113440.523438
1912.267578	113418.125000
1911.285156	113655.164062
1910.301758	113762.414062
1909.318359	113132.281250
1908.334961	113211.617188
1907.351562	113473.929688
1906.367188	113024.585938
1905.383789	113142.000000
1904.399414	113655.664062
1903.415039	112916.968750
1902.430664	113681.890625
1901.446289	113481.710938
1900.460938	113446.601562
1899.476562	113533.335938
1898.491211	113214.000000
1897.505859	113161.187500
1896.520508	113488.906250
1895.535156	113895.132812
1894.548828	113332.492188
1893.562500	113951.578125
1892.577148	113500.656250
1891.590820	113445.281250
1890.603516	113828.335938
1889.617188	114097.226562
1888.629883	113633.914062
1887.643555	113755.835938
1886.656250	113751.093750
1885.668945	114098.281250
1884.680664	113503.640625
1883.693359	114197.492188
1882.705078	113372.750000
1881.716797	114238.421875
1880.729492	114155.156250
1879.740234	113581.234375
1878.751953	113976.046875
1877.763672	114049.609375
1876.774414	113915.851562
1875.785156	113506.640625
1874.795898	113863.265625
1873.806641	113896.359375
1872.816406	114070.898438
1871.827148	114169.593750
1870.836914	114293.507812
1869.846680	113957.859375
1868.856445	115030.921875
1867.866211	114488.289062
1866.875000	114251.179688
1865.884766	114127.695312
1864.893555	113721.710938
1863.902344	114360.039062
1862.911133	114672.835938
1861.918945	114645.156250
1860.927734	114690.578125
1859.935547	114753.617188
1858.943359	114312.648438
1857.951172	115058.515625
1856.958984	115532.054688
1855.965820	114443.875000
1854.973633	115091.109375
1853.980469	115116.218750
1852.987305	115209.289062
1851.994141	114939.890625
1851.000000	115589.078125
1850.006836	114683.156250
1849.012695	115168.640625
1848.018555	115621.250000
1847.024414	114610.179688
1846.030273	115477.562500
1845.036133	114931.906250
1844.041016	114014.460938
1843.045898	115434.312500
1842.051758	115607.492188
1841.055664	114989.328125
1840.060547	115152.476562
1839.065430	115747.468750
1838.069336	115365.593750
1837.073242	115310.179688
1836.077148	114875.796875
1835.081055	115174.296875
1834.084961	115851.539062
1833.087891	115758.429688
1832.090820	115615.195312
1831.093750	115371.695312
1830.096680	116178.781250
1829.099609	115586.828125
1828.102539	115711.867188
1827.104492	116042.343750
1826.106445	116312.570312
1825.108398	115743.539062
1824.110352	115880.968750
1823.112305	115803.000000
1822.113281	116088.078125
1821.115234	115774.789062
1820.116211	115914.609375
1819.117188	116299.593750
1818.117188	116406.734375
1817.118164	115838.445312
1816.118164	115828.078125
1815.119141	116542.859375
1814.119141	116367.351562
1813.119141	116011.929688
1812.118164	115886.546875
1811.118164	116163.515625
1810.117188	116375.421875
1809.116211	116110.148438
1808.115234	116836.460938
1807.114258	116089.265625
1806.113281	116415.859375
1805.111328	117099.281250
1804.109375	115993.039062
1803.107422	116945.781250
1802.105469	116710.640625
1801.103516	115333.148438
1800.100586	116524.906250
1799.098633	116200.179688
1798.095703	116232.078125
1797.092773	116244.015625
1796.089844	117073.382812
1795.085938	116257.898438
1794.083008	116548.843750
1793.079102	117148.546875
1792.075195	116557.601562
1791.071289	116390.164062
1790.067383	116653.476562
1789.062500	116304.359375
1788.057617	116970.750000
1787.053711	116957.609375
1786.048828	116407.101562
1785.042969	116428.882812
1784.038086	116425.773438
1783.032227	116922.453125
1782.027344	116337.515625
1781.021484	116834.023438
1780.015625	116535.093750
1779.008789	117038.835938
1778.002930	116516.382812
1776.996094	116240.007812
1775.989258	116358.593750
1774.982422	115747.125000
1773.975586	116734.640625
1772.968750	117026.812500
1771.960938	115795.117188
1770.954102	116752.312500
1769.946289	116044.546875
1768.938477	116373.812500
1767.929688	117305.585938
1766.921875	116109.625000
1765.913086	116198.226562
1764.904297	115989.359375
1763.895508	116253.890625
1762.886719	115874.109375
1761.877930	116762.843750
1760.868164	116175.046875
1759.858398	116434.390625
1758.848633	115752.757812
1757.838867	115999.695312
1756.829102	116951.953125
1755.819336	115765.734375
1754.808594	115520.156250
1753.797852	116009.375000
1752.787109	115979.007812
1751.776367	116287.437500
1750.764648	116029.554688
1749.753906	116723.507812
1748.742188	115996.015625
1747.730469	115802.554688
1746.718750	116207.085938
1745.707031	116381.726562
1744.694336	116205.578125
1743.682617	116236.921875
1742.669922	116443.546875
1741.657227	116139.093750
1740.643555	116009.992188
1739.630859	116401.609375
1738.618164	116038.101562
1737.604492	116212.492188
1736.590820	116700.046875
1735.577148	116136.921875
1734.562500	115640.554688
1733.548828	115634.921875
1732.534180	116028.554688
1731.519531	116143.585938
1730.504883	116330.031250
1729.490234	116252.820312
1728.475586	116086.960938
1727.459961	116485.070312
1726.444336	116518.656250
1725.428711	116389.750000
1724.413086	116364.257812
1723.397461	116466.726562
1722.380859	116401.859375
1721.364258	116455.078125
1720.348633	117002.625000
1719.332031	116204.898438
1718.314453	116413.000000
1717.297852	116888.960938
1716.280273	116826.515625
1715.262695	116088.335938
1714.245117	116775.375000
1713.227539	116880.000000
1712.209961	116694.781250
1711.191406	116345.109375
1710.173828	117090.515625
1709.155273	116434.054688
1708.136719	116666.242188
1707.117188	117421.000000
1706.098633	116418.890625
1705.079102	116778.492188
1704.059570	116968.750000
1703.040039	116864.687500
1702.020508	117035.234375
1701.000977	116869.906250
1699.980469	116863.929688
1698.959961	117294.109375
1697.939453	116675.578125
1696.918945	117281.984375
1695.898438	117733.890625
1694.876953	117032.343750
1693.856445	117197.687500
1692.834961	117140.226562
1691.813477	116982.437500
1690.791992	117157.476562
1689.769531	116625.437500
1688.748047	117106.210938
1687.725586	117197.968750
1686.703125	117020.734375
1685.680664	116968.226562
1684.657227	117287.265625
1683.634766	117378.906250
1682.611328	116761.929688
1681.587891	117161.437500
1680.564453	117301.890625
1679.541016	117630.328125
1678.516602	117431.250000
1677.493164	117525.187500
1676.468750	117279.812500
1675.444336	117320.039062
1674.418945	117406.609375
1673.394531	116875.953125
1672.369141	117457.687500
1671.344727	117161.312500
1670.319336	116830.890625
1669.293945	117175.851562
1668.267578	117086.835938
1667.242188	117321.960938
1666.215820	117011.218750
1665.189453	117078.179688
1664.163086	117663.882812
1663.136719	117555.359375
1662.109375	117159.562500
1661.083008	116888.062500
1660.055664	116959.820312
1659.028320	117496.335938
1658.000977	116543.656250
1656.972656	116907.335938
1655.945312	116533.937500
1654.916992	117065.273438
1653.888672	117542.921875
1652.860352	116875.460938
1651.832031	117075.898438
1650.802734	116957.929688
1649.773438	116208.312500
1648.745117	116707.523438
1647.714844	116647.960938
1646.685547	116891.937500
1645.656250	116434.187500
1644.625977	116476.640625
1643.595703	116584.593750
1642.565430	116658.539062
1641.535156	116737.304688
1640.504883	116418.226562
1639.473633	116409.687500
1638.442383	116059.242188
1637.412109	117231.445312
1636.379883	116308.914062
1635.348633	116683.304688
1634.317383	116536.585938
1633.285156	116813.875000
1632.252930	116136.710938
1631.220703	116169.359375
1630.188477	116562.789062
1629.155273	116404.093750
1628.123047	115756.500000
1627.089844	116028.773438
1626.056641	115933.148438
1625.023438	115905.296875
1623.989258	115865.359375
1622.956055	116144.648438
1621.921875	116257.000000
1620.887695	116265.359375
1619.853516	115845.882812
1618.819336	115953.375000
1617.784180	116631.054688
1616.749023	115844.523438
1615.714844	115611.382812
1614.678711	116477.117188
1613.643555	116651.984375
1612.608398	116027.734375
1611.572266	115521.960938
1610.536133	115513.492188
1609.500000	116018.945312
1608.463867	115105.742188
1607.427734	115881.210938
1606.390625	115679.750000
1605.353516	115013.007812
1604.316406	116077.343750
1603.279297	115890.398438
1602.242188	115489.039062
1601.204102	115461.273438
1600.166992	115862.296875
1599.128906	115646.593750
1598.090820	115975.195312
1597.051758	116091.796875
1596.013672	115736.539062
1594.974609	114741.203125
1593.935547	116087.601562
1592.896484	116100.625000
1591.857422	115367.937500
1590.818359	115729.812500
1589.778320	115473.562500
1588.738281	116042.039062
1587.698242	115872.351562
1586.658203	115890.179688
1585.618164	115155.882812
1584.577148	115800.875000
1583.537109	115833.109375
1582.496094	115471.453125
1581.454102	115410.070312
1580.413086	115108.625000
1579.372070	115913.859375
1578.330078	115799.617188
1577.288086	115675.820312
1576.246094	115496.875000
1575.204102	115365.968750
1574.161133	115664.382812
1573.119141	116300.781250
1572.076172	115232.414062
1571.033203	116403.164062
1569.990234	115577.195312
1568.946289	115774.648438
1567.903320	115674.968750
1566.859375	116207.656250
1565.815430	115846.882812
1564.771484	115977.085938
1563.726562	115630.843750
1562.682617	115904.640625
1561.637695	115919.875000
1560.592773	116416.039062
1559.547852	116132.140625
1558.502930	116140.140625
1557.457031	116480.539062
1556.411133	116404.781250
1555.366211	116125.843750
1554.320312	115729.890625
1553.273438	115886.093750
1552.227539	115757.914062
1551.180664	116453.921875
1550.133789	116203.867188
1549.086914	115848.820312
1548.040039	115863.976562
1546.993164	116172.734375
1545.945312	116159.171875
1544.897461	116026.296875
1543.849609	116998.117188
1542.801758	116266.382812
1541.753906	116276.648438
1540.705078	116596.898438
1539.656250	116101.640625
1538.607422	116214.414062
1537.558594	117139.851562
1536.509766	116401.695312
1535.459961	116450.015625
1534.411133	116057.632812
1533.361328	116494.187500
1532.311523	116097.164062
1531.260742	116174.054688
1530.210938	116505.601562
1529.160156	115832.703125
1528.109375	116966.078125
1527.058594	116367.078125
1526.007812	116189.312500
1524.957031	116508.648438
1523.905273	116007.531250
1522.853516	116124.703125
1521.801758	116434.351562
1520.750000	115845.570312
1519.698242	116095.750000
1518.645508	115652.148438
1517.592773	116211.046875
1516.540039	115724.820312
1515.487305	115566.429688
1514.434570	115692.968750
1513.380859	115864.554688
1512.327148	115480.765625
1511.274414	116207.531250
1510.219727	116049.171875
1509.166016	116184.968750
1508.112305	115680.437500
1507.057617	115723.773438
1506.002930	115065.406250
1504.948242	115765.367188
1503.893555	115557.460938
1502.837891	115652.898438
1501.782227	115087.375000
1500.726562	115081.007812
1499.670898	116052.640625
1498.615234	115305.031250
1497.559570	115504.562500
1496.502930	115289.828125
1495.446289	115692.789062
1494.389648	115653.164062
1493.333008	114847.140625
1492.276367	115614.164062
1491.218750	115394.851562
1490.161133	115149.609375
1489.103516	114762.617188
1488.045898	115117.859375
1486.988281	114785.351562
1485.929688	114807.343750
1484.871094	114966.320312
1483.812500	114978.804688
1482.753906	115324.226562
1481.695312	114845.585938
1480.635742	114525.257812
1479.576172	114846.953125
1478.516602	114975.046875
1477.457031	114404.789062
1476.397461	114511.679688
1475.336914	114248.273438
1474.277344	114428.234375
1473.216797	115081.984375
1472.156250	114611.179688
1471.094727	114211.242188
1470.034180	114657.312500
1468.972656	114544.906250
1467.911133	114745.796875
1466.849609	114583.945312
1465.788086	113958.312500
1464.726562	114444.023438
1463.664062	114399.992188
1462.601562	114318.312500
1461.539062	114643.695312
1460.476562	114632.562500
1459.413086	114416.804688
1458.350586	114473.906250
1457.287109	114641.484375
1456.223633	114494.000000
1455.160156	114327.765625
1454.095703	114542.257812
1453.032227	114394.859375
1451.967773	114177.031250
1450.903320	113860.640625
1449.837891	114497.726562
1448.773438	114242.421875
1447.708008	113879.226562
1446.643555	114194.414062
1445.578125	113716.367188
1444.512695	114141.734375
1443.446289	113961.757812
1442.380859	114272.000000
1441.314453	114342.953125
1440.248047	114481.867188
1439.181641	113608.125000
1438.114258	114218.164062
1437.047852	113693.898438
1435.980469	114027.250000
1434.913086	113641.398438
1433.845703	113445.367188
1432.778320	113675.546875
1431.709961	113957.140625
1430.641602	113669.859375
1429.573242	113832.000000
1428.504883	113598.648438
1427.436523	113933.843750
1426.368164	113649.093750
1425.298828	113111.875000
1424.229492	113255.242188
1423.160156	113286.335938
1422.089844	114315.429688
1421.020508	114040.187500
1419.950195	113797.757812
1418.879883	113581.093750
1417.809570	113724.195312
1416.739258	113657.062500
1415.668945	112473.953125
1414.597656	113620.914062
1413.526367	112912.007812
1412.455078	113300.085938
1411.383789	113496.703125
1410.311523	113532.296875
1409.240234	113824.421875
1408.167969	113468.195312
1407.095703	113669.289062
1406.022461	113648.867188
1404.950195	112805.757812
1403.876953	113635.984375
1402.803711	112944.601562
1401.730469	113378.515625
1400.657227	113409.375000
1399.583984	112993.156250
1398.509766	113191.679688
1397.435547	113504.179688
1396.361328	113137.023438
1395.287109	113565.750000
1394.212891	113177.765625
1393.137695	113410.945312
1392.062500	112876.609375
1390.987305	112472.671875
1389.912109	113049.890625
1388.835938	112490.328125
1387.760742	112758.257812
1386.684570	112742.617188
1385.608398	112713.046875
1384.532227	113059.742188
1383.455078	112493.695312
1382.378906	112362.007812
1381.301758	112996.414062
1380.224609	112832.187500
1379.147461	112628.562500
1378.069336	113128.000000
1376.992188	112975.421875
1375.914062	112166.539062
1374.835938	112234.468750
1373.757812	112269.906250
1372.678711	112286.789062
1371.600586	112442.710938
1370.521484	112573.085938
1369.442383	112455.523438
1368.363281	111846.921875
1367.283203	112324.710938
1366.204102	112536.039062
1365.124023	111733.273438
1364.043945	112134.421875
1362.963867	112040.171875
1361.882812	111883.476562
1360.802734	111867.953125
1359.721680	111766.843750
1358.640625	111878.531250
1357.559570	112325.437500
1356.478516	111840.539062
1355.396484	111924.398438
1354.314453	111541.421875
1353.232422	111787.031250
1352.150391	112044.101562
1351.068359	111610.476562
1349.985352	111105.421875
1348.902344	111401.710938
1347.819336	111981.820312
1346.736328	111936.250000
1345.653320	111888.382812
1344.569336	111505.984375
1343.485352	111352.093750
1342.401367	111175.187500
1341.317383	111182.812500
1340.233398	111812.921875
1339.148438	111398.585938
1338.063477	111689.632812
1336.978516	111139.507812
1335.893555	111905.085938
1334.808594	111159.320312
1333.722656	111662.054688
1332.637695	111510.664062
1331.551758	110832.125000
1330.464844	111481.945312
1329.378906	111275.421875
1328.291992	111607.390625
1327.206055	111796.609375
1326.119141	111327.914062
1325.031250	111466.500000
1323.944336	111308.429688
1322.856445	111228.570312
1321.769531	111681.976562
1320.681641	111121.781250
1319.593750	111577.335938
1318.504883	110868.031250
1317.416992	110905.437500
1316.328125	111487.070312
1315.239258	111324.593750
1314.150391	111143.804688
1313.060547	110552.242188
1311.971680	111482.296875
1310.881836	111301.562500
1309.791992	110274.445312
1308.702148	110818.726562
1307.611328	110649.664062
1306.520508	110847.476562
1305.430664	110875.593750
1304.339844	110702.015625
1303.248047	110803.460938
1302.157227	110503.937500
1301.065430	110717.617188
1299.974609	110644.937500
1298.882812	110299.796875
1297.790039	110048.640625
1296.698242	110832.171875
1295.605469	110777.812500
1294.512695	110764.656250
1293.419922	110476.976562
1292.327148	110187.109375
1291.234375	110240.367188
1290.140625	109975.789062
1289.046875	111135.500000
1287.953125	109753.179688
1286.859375	110386.906250
1285.765625	109820.875000
1284.670898	110586.843750
1283.576172	109829.125000
1282.481445	110019.351562
1281.386719	110223.203125
1280.291016	109570.953125
1279.196289	109651.554688
1278.100586	109638.562500
1277.004883	109796.687500
1275.908203	109585.210938
1274.812500	109843.625000
1273.715820	109620.812500
1272.619141	109028.734375
1271.522461	110062.101562
1270.425781	109244.531250
1269.328125	108944.492188
1268.231445	109359.906250
1267.133789	109023.500000
1266.036133	109536.671875
1264.937500	109733.156250
1263.839844	108873.250000
1262.741211	109659.289062
1261.642578	109307.179688
1260.543945	108582.046875
1259.445312	109224.375000
1258.345703	108997.625000
1257.247070	108952.867188
1256.147461	108935.414062
1255.046875	108454.210938
1253.947266	108766.406250
1252.847656	108667.171875
1251.747070	108386.203125
1250.646484	109032.148438
1249.545898	108621.750000
1248.444336	108670.195312
1247.343750	109104.578125
1246.242188	108267.625000
1245.140625	108409.148438
1244.039062	108028.710938
1242.936523	108939.304688
1241.834961	108091.632812
1240.732422	108548.296875
1239.629883	108338.156250
1238.527344	107828.828125
1237.423828	108026.882812
1236.321289	108743.828125
1235.217773	108295.867188
1234.114258	108640.968750
1233.010742	108168.265625
1231.906250	107781.789062
1230.802734	108443.765625
1229.698242	108064.156250
1228.593750	108612.664062
1227.488281	108599.757812
1226.383789	108163.750000
1225.278320	108444.992188
1224.172852	108646.968750
1223.067383	108283.539062
1221.961914	108650.507812
1220.856445	108874.929688
1219.750000	108543.281250
1218.643555	108286.320312
1217.537109	107959.406250
1216.430664	108493.242188
1215.323242	107954.101562
1214.215820	108108.382812
1213.108398	108456.750000
1212.000977	108798.218750
1210.893555	108221.039062
1209.785156	107720.781250
1208.677734	108411.859375
1207.569336	108572.625000
1206.459961	108349.945312
1205.351562	108503.882812
1204.242188	108560.828125
1203.133789	107438.937500
1202.024414	107579.421875
1200.915039	108454.375000
1199.804688	108695.992188
1198.694336	108392.460938
1197.584961	108793.875000
1196.474609	108163.953125
1195.363281	107912.445312
1194.252930	108961.906250
1193.141602	108276.031250
1192.030273	108258.601562
1190.918945	108454.875000
1189.807617	108556.617188
1188.696289	108599.851562
1187.583984	109097.203125
1186.471680	108299.632812
1185.359375	107891.140625
1184.247070	108626.523438
1183.133789	108714.609375
1182.021484	108218.656250
1180.908203	108764.914062
1179.793945	108201.757812
1178.680664	108013.710938
1177.567383	108869.445312
1176.453125	108349.203125
1175.338867	108172.437500
1174.224609	108224.546875
1173.109375	107845.992188
1171.995117	107754.617188
1170.879883	108028.734375
1169.764648	108634.507812
1168.649414	108173.210938
1167.533203	108473.976562
1166.417969	107992.703125
1165.301758	108141.054688
1164.185547	107892.929688
1163.069336	108016.609375
1161.952148	108417.851562
1160.835938	107916.859375
1159.718750	107814.406250
1158.601562	107403.203125
1157.483398	107795.296875
1156.366211	107632.515625
1155.248047	107957.320312
1154.129883	107651.460938
1153.011719	107370.296875
1151.893555	107547.437500
1150.774414	107737.921875
1149.655273	107646.804688
1148.537109	107280.937500
1147.416992	107422.210938
1146.297852	107478.570312
1145.177734	108108.718750
1144.058594	107682.742188
1142.938477	106908.734375
1141.817383	107719.382812
1140.697266	107516.804688
1139.576172	107191.609375
1138.456055	106946.812500
1137.334961	107087.875000
1136.212891	106430.726562
1135.091797	106772.445312
1133.969727	107446.093750
1132.847656	106729.062500
1131.725586	106963.585938
1130.603516	107578.906250
1129.480469	106252.023438
1128.358398	107018.656250
1127.235352	106647.398438
1126.112305	106750.375000
1124.988281	106501.687500
1123.865234	106571.265625
1122.741211	106407.234375
1121.617188	106728.125000
1120.493164	106159.382812
1119.368164	106562.460938
1118.244141	106256.257812
1117.119141	106256.875000
1115.994141	106439.710938
1114.869141	106107.023438
1113.743164	106491.945312
1112.618164	106674.625000
1111.492188	106508.601562
1110.366211	106171.687500
1109.239258	105930.335938
1108.113281	105882.148438
1106.986328	106180.132812
1105.859375	105903.398438
1104.732422	106145.804688
1103.605469	106530.054688
1102.477539	105237.867188
1101.349609	105954.664062
1100.221680	105961.914062
1099.093750	106669.445312
1097.965820	106621.164062
1096.836914	105994.703125
1095.708008	105733.921875
1094.579102	106033.500000
1093.450195	106065.054688
1092.321289	106962.132812
1091.191406	106234.351562
1090.061523	105699.351562
1088.931641	106489.796875
1087.801758	106094.289062
1086.670898	106716.281250
1085.541016	105825.554688
1084.410156	105989.718750
1083.278320	106096.335938
1082.147461	106216.179688
1081.016602	105812.289062
1079.884766	106095.617188
1078.752930	105820.000000
1077.621094	106191.539062
1076.488281	105929.250000
1075.356445	105920.921875
1074.223633	106056.054688
1073.090820	105875.570312
1071.957031	106387.945312
1070.824219	106293.492188
1069.690430	105755.734375
1068.556641	105831.218750
1067.422852	106113.914062
1066.289062	106266.445312
1065.154297	105940.656250
1064.020508	105121.375000
1062.885742	106117.804688
1061.750000	106058.742188
1060.615234	106008.500000
1059.479492	106048.562500
1058.344727	106097.398438
1057.208984	106141.820312
1056.072266	105757.070312
1054.936523	106701.460938
1053.799805	106109.945312
1052.663086	105567.031250
1051.526367	105629.078125
1050.389648	106465.046875
1049.251953	106192.750000
1048.115234	106149.125000
1046.977539	105989.046875
1045.839844	106384.898438
1044.701172	105539.445312
1043.563477	105851.765625
1042.424805	105854.335938
1041.286133	105834.953125
1040.147461	105824.343750
1039.007812	105366.015625
1037.869141	105967.703125
1036.729492	105807.882812
1035.589844	105847.718750
1034.449219	105396.289062
1033.309570	105173.054688
1032.168945	105653.625000
1031.028320	105583.851562
1029.887695	105025.390625
1028.747070	106099.500000
1027.605469	104908.031250
1026.463867	105528.367188
1025.322266	105686.406250
1024.180664	105610.101562
1023.039062	105520.687500
1021.896484	105004.507812
1020.753906	105055.281250
1019.611328	105287.625000
1018.468750	104631.757812
1017.325195	105386.796875
1016.181641	105046.031250
1015.039062	104869.351562
1013.894531	105724.468750
1012.750977	104669.156250
1011.606445	105307.664062
1010.462891	104807.718750
1009.318359	104989.437500
1008.172852	105219.140625
1007.028320	105429.101562
1005.882812	105645.523438
1004.737305	105800.750000
1003.591797	105728.960938
1002.446289	104873.898438
1001.299805	104935.359375
1000.154297	104455.898438
999.007812	105383.132812
997.861328	104633.398438
996.713867	105292.125000
995.567383	104760.617188
994.419922	105406.000000
993.272461	105227.601562
992.125000	104537.375000
990.976562	105254.296875
989.828125	104988.906250
988.680664	105494.296875
987.531250	105000.406250
986.382812	105631.828125
985.234375	105286.039062
984.084961	104809.851562
982.935547	104986.351562
981.786133	105049.703125
980.635742	104730.351562
979.486328	104374.156250
978.335938	104937.460938
977.185547	104879.062500
976.034180	105357.328125
974.883789	105027.328125
973.732422	104732.195312
972.581055	104784.601562
971.429688	105019.359375
970.278320	104835.078125
969.125977	105015.468750
967.973633	104475.390625
966.821289	104931.296875
965.668945	104894.648438
964.516602	105512.945312
963.363281	104918.945312
962.209961	105703.937500
961.056641	105374.546875
959.903320	105511.187500
958.749023	104430.101562
957.595703	105413.882812
956.441406	105474.625000
955.286133	105223.515625
954.131836	104825.257812
952.976562	104507.242188
951.822266	105414.335938
950.666992	105169.890625
949.510742	104986.101562
948.355469	104659.617188
947.199219	105053.429688
946.042969	105274.109375
944.886719	104573.726562
943.730469	105492.570312
942.573242	104416.367188
941.416016	104891.945312
940.258789	104673.882812
939.101562	105175.148438
937.944336	104691.476562
936.786133	104471.398438
935.627930	105153.742188
934.469727	105071.781250
933.311523	104843.109375
932.152344	104780.648438
930.993164	104808.796875
929.833984	105447.296875
928.674805	105018.164062
927.515625	104395.148438
926.355469	105520.507812
925.195312	104539.867188
924.035156	105080.835938
922.875000	104945.132812
921.713867	104624.234375
920.553711	104469.273438
919.392578	104721.312500
918.231445	104116.460938
917.069336	104417.968750
915.908203	104030.726562
914.746094	104116.968750
913.583984	104534.460938
912.420898	104510.882812
911.258789	104093.789062
910.095703	104334.742188
908.932617	104109.132812
907.769531	104178.046875
906.606445	104580.000000
905.442383	104285.710938
904.278320	104262.171875
903.114258	104333.140625
901.950195	103822.171875
900.786133	104094.984375
899.621094	104114.414062
898.456055	104007.210938
897.291016	103747.703125
896.125977	103810.078125
894.959961	103554.984375
893.793945	103698.843750
892.627930	103630.390625
891.461914	103804.187500
890.295898	103478.539062
889.128906	104263.007812
887.961914	104134.484375
886.794922	102971.390625
885.627930	103134.421875
884.459961	103254.554688
883.291992	103244.046875
882.124023	103411.203125
880.956055	103496.968750
879.788086	103668.281250
878.619141	103471.570312
877.450195	104081.289062
876.281250	104177.539062
875.112305	103861.093750
873.942383	104115.531250
872.773438	103596.156250
871.603516	103168.859375
870.432617	103942.445312
869.262695	103425.515625
868.091797	104047.117188
866.920898	103778.046875
865.750000	103421.539062
864.579102	103716.203125
863.407227	104051.296875
862.236328	103776.007812
861.064453	104315.765625
859.892578	103801.625000
858.719727	103950.898438
857.546875	103818.671875
856.375000	103927.375000
855.202148	104010.460938
854.028320	104626.265625
852.855469	104662.304688
851.681641	103873.929688
850.507812	104329.664062
849.333984	104442.390625
848.159180	104829.710938
846.985352	104586.804688
845.810547	104729.195312
844.635742	104431.062500
843.459961	104367.062500
842.285156	104471.109375
841.109375	103960.507812
839.933594	104385.664062
838.757812	104434.367188
837.582031	104816.750000
836.405273	104552.953125
835.228516	104675.953125
834.051758	104673.562500
832.875000	105206.398438
831.697266	104794.062500
830.519531	105303.312500
829.341797	104383.765625
828.164062	105083.914062
826.986328	104603.976562
825.807617	104593.085938
824.628906	104614.015625
823.450195	104844.882812
822.271484	104774.570312
821.091797	104636.429688
819.912109	104672.156250
818.732422	105218.585938
817.552734	105016.867188
816.373047	104872.414062
815.192383	105494.734375
814.011719	104850.476562
812.831055	105525.500000
811.650391	105304.835938
810.468750	105249.328125
809.287109	104952.609375
808.105469	104960.656250
806.923828	105353.671875
805.742188	105306.640625
804.559570	105033.367188
803.376953	104927.210938
802.194336	104706.945312
801.011719	105408.164062
799.828125	104611.054688
798.644531	105645.804688
797.460938	104650.390625
796.277344	104814.695312
795.092773	105287.195312
793.909180	104763.140625
792.724609	104853.445312
791.540039	105435.390625
790.354492	105481.226562
789.169922	105425.789062
787.984375	105376.687500
786.798828	104509.460938
785.612305	104665.046875
784.426758	105682.671875
783.240234	104841.140625
782.053711	105158.804688
780.867188	104871.734375
779.679688	104786.960938
778.493164	105127.609375
777.305664	104935.429688
776.118164	104583.335938
774.930664	104721.765625
773.742188	105072.671875
772.553711	105147.828125
771.365234	105166.156250
770.176758	104969.953125
768.988281	104973.578125
767.798828	104933.046875
766.609375	104842.078125
765.419922	105205.085938
764.229492	105336.820312
763.040039	105277.320312
761.849609	104686.445312
760.659180	105261.289062
759.468750	104156.210938
758.277344	104934.562500
757.086914	104900.359375
755.895508	104419.195312
754.703125	104867.640625
753.511719	104919.460938
752.319336	104683.929688
751.127930	104519.773438
749.934570	104984.625000
748.742188	105237.593750
747.549805	105312.328125
746.356445	104632.703125
745.163086	105015.468750
743.969727	104656.609375
742.775391	104312.546875
741.582031	105174.617188
740.387695	105146.671875
739.193359	104892.687500
737.998047	104467.195312
736.803711	104933.148438
735.608398	105110.250000
734.413086	104502.984375
733.217773	105023.023438
732.021484	104788.132812
730.825195	105017.367188
729.628906	105004.085938
728.432617	105584.210938
727.236328	104595.210938
726.039062	104901.570312
724.841797	104552.078125
723.644531	104801.945312
722.447266	104488.078125
721.249023	105347.312500
720.051758	105087.710938
718.853516	104997.195312
717.654297	105278.015625
716.456055	105425.250000
715.256836	104767.523438
714.057617	104996.101562
712.858398	105195.398438
711.659180	104900.695312
710.458984	104729.039062
709.258789	104897.007812
708.058594	105737.687500
706.858398	105049.500000
705.657227	105313.078125
704.457031	105166.460938
703.255859	105101.062500
702.053711	105125.164062
700.852539	105446.773438
699.650391	105362.617188
698.448242	105424.085938
697.246094	105500.070312
696.043945	105740.265625
694.840820	105069.937500
693.638672	105229.062500
692.434570	105292.546875
691.231445	105740.328125
690.028320	105672.828125
688.824219	105543.046875
687.620117	105751.742188
686.416016	105673.882812
685.210938	105533.781250
684.006836	105424.851562
682.801758	105668.664062
681.596680	105070.195312
680.390625	105179.164062
679.185547	105256.992188
677.979492	105550.390625
676.773438	105939.023438
675.567383	105448.804688
674.360352	105754.421875
673.153320	105067.601562
671.946289	105810.203125
670.739258	105736.593750
669.532227	105797.593750
668.324219	105134.031250
667.116211	105126.812500
665.908203	105392.734375
664.700195	105271.664062
663.491211	105570.554688
662.282227	105323.328125
661.073242	104954.195312
659.864258	105327.382812
658.655273	105770.710938
657.445312	105292.148438
656.235352	104927.406250
655.025391	104866.476562
653.814453	105662.726562
652.604492	105101.929688
651.393555	105648.000000
650.182617	105353.695312
648.970703	105137.921875
647.759766	105043.976562
646.547852	105591.695312
645.335938	104641.640625
644.123047	105378.960938
642.911133	104946.851562
641.698242	105131.320312
640.485352	104934.390625
639.272461	104809.656250
638.059570	104913.671875
636.845703	104856.960938
635.631836	105113.335938
634.417969	105233.695312
633.203125	105179.000000
631.989258	105167.546875
630.774414	105012.031250
629.559570	105338.078125
628.344727	104987.117188
627.128906	104737.085938
625.913086	104696.914062
624.697266	105263.328125
623.481445	104454.179688
622.264648	105084.140625
621.048828	104612.351562
619.832031	104654.398438
618.615234	104495.109375
617.397461	104387.218750
616.180664	104519.625000
614.962891	104666.351562
613.745117	104837.648438
612.526367	104401.375000
611.308594	104701.921875
610.089844	104848.484375
608.871094	104855.500000
607.652344	104347.757812
606.432617	104225.679688
605.212891	104095.445312
603.993164	105131.507812
602.773438	104453.984375
601.553711	104452.843750
600.333008	104636.062500
599.112305	104923.664062
597.891602	105061.671875
596.669922	105027.640625
595.449219	104516.671875
594.227539	105014.859375
593.005859	104712.789062
591.784180	105274.164062
590.561523	104612.148438
589.338867	104674.328125
588.116211	104934.812500
586.893555	104774.070312
585.669922	104515.273438
584.447266	105131.203125
583.223633	105379.125000
581.999023	105134.648438
580.775391	105241.546875
579.550781	105146.242188
578.326172	104891.718750
577.101562	105480.312500
575.876953	105311.531250
574.651367	105185.664062
573.425781	105127.148438
572.200195	105103.335938
570.974609	105193.726562
569.748047	105161.734375
568.522461	105264.304688
567.295898	105344.406250
566.068359	105450.960938
564.841797	105255.937500
563.614258	105338.023438
562.386719	105344.710938
561.159180	105440.984375
559.930664	105443.570312
558.703125	105594.742188
557.474609	105005.070312
556.246094	105101.320312
555.016602	105126.320312
553.788086	104622.484375
552.558594	104657.726562
551.329102	104947.101562
550.098633	104736.289062
548.869141	104932.039062
547.638672	104778.203125
546.408203	104600.031250
545.177734	104588.492188
543.946289	104028.609375
542.714844	104731.906250
541.483398	104391.453125
540.251953	103965.867188
539.020508	104433.359375
537.788086	104423.867188
536.555664	104544.195312
535.323242	104372.414062
534.089844	104164.187500
532.857422	104124.320312
531.624023	103863.500000
530.390625	103375.789062
529.156250	104004.757812
527.922852	103478.703125
526.688477	103455.179688
525.454102	103510.640625
524.218750	103254.257812
522.984375	103125.500000
521.749023	103731.515625
520.513672	103228.328125
519.278320	103295.898438
518.041992	103306.789062
516.805664	103038.570312
515.569336	102980.750000
514.333008	103278.765625
513.096680	102735.781250
511.859375	102587.085938
510.622070	103224.460938
509.384766	103257.539062
508.146484	102781.609375
506.909180	103087.375000
505.670898	103191.117188
504.432617	102798.210938
503.193359	103273.328125
501.955078	102854.320312
500.715820	102675.546875
499.476562	102787.312500
498.236328	103427.429688
496.997070	102923.992188
495.756836	103235.226562
494.516602	103161.335938
493.276367	102940.359375
492.035156	102933.039062
490.793945	102637.648438
489.552734	103355.468750
488.311523	103094.320312
487.070312	102925.890625
485.828125	103216.476562
484.585938	103406.320312
483.343750	102948.148438
482.100586	103230.507812
480.857422	103659.593750
479.615234	103360.492188
478.371094	103359.085938
477.127930	103056.125000
475.883789	103213.554688
474.639648	103638.195312
473.395508	103269.031250
472.151367	103297.750000
470.906250	103623.710938
469.661133	103644.312500
468.416016	103801.421875
467.170898	103296.054688
465.924805	103894.687500
464.679688	103327.281250
463.433594	103672.890625
462.186523	103340.406250
460.940430	103800.187500
459.693359	103257.265625
458.446289	103235.757812
457.199219	102987.773438
455.951172	103387.132812
454.703125	102978.921875
453.455078	103019.554688
452.207031	103418.671875
450.958984	103142.820312
449.709961	102959.171875
448.460938	103265.976562
447.211914	102542.023438
445.961914	101998.414062
444.712891	102713.312500
443.462891	102145.867188
442.212891	102638.484375
440.961914	102133.242188
439.710938	102449.757812
438.460938	102508.335938
437.208984	102620.835938
435.958008	102585.445312
434.706055	101986.773438
433.455078	101773.773438
432.202148	101834.390625
430.950195	101617.492188
429.698242	101963.531250
428.445312	101319.625000
427.192383	101861.101562
425.938477	101339.132812
424.685547	101541.343750
423.431641	100834.179688
422.177734	101672.382812
420.923828	101820.578125
419.668945	101077.867188
418.414062	101222.132812
417.159180	100577.421875
415.904297	100952.757812
414.648438	101702.343750
413.393555	101284.875000
412.137695	100981.031250
410.880859	101039.531250
409.625000	100644.304688
408.368164	100947.546875
407.111328	101079.609375
405.854492	100752.203125
404.597656	100448.773438
403.339844	101169.296875
402.082031	101442.312500
400.824219	101126.992188
399.565430	101211.148438
398.307617	100931.734375
397.048828	101007.945312
395.790039	101368.085938
394.530273	101068.937500
393.271484	101121.242188
392.011719	101413.664062
390.750977	101100.765625
389.491211	100742.359375
388.230469	101490.882812
386.970703	101205.898438
385.708984	101482.140625
384.448242	101357.828125
383.186523	100940.226562
381.925781	100839.835938
380.664062	100693.906250
379.401367	101284.921875
378.139648	101218.179688
376.876953	100850.476562
375.614258	100585.851562
374.350586	101134.851562
373.087891	101560.945312
371.824219	101399.210938
370.560547	101008.054688
369.296875	100504.304688
368.032227	101383.023438
366.767578	101019.757812
365.502930	101390.007812
364.238281	102013.085938
362.972656	101667.679688
361.708008	102928.585938
360.441406	103250.765625
359.175781	104157.382812
357.910156	104542.375000
356.643555	105628.039062
355.376953	106967.898438
354.110352	107881.000000
352.842773	108675.359375
351.575195	109759.390625
350.307617	110336.140625
349.040039	112693.273438
347.772461	114087.406250
346.503906	116407.437500
345.235352	117707.703125
343.966797	118558.218750
342.697266	115994.367188
341.427734	113071.046875
340.158203	109575.773438
338.888672	106920.570312
337.619141	104723.070312
336.348633	103429.773438
335.078125	102028.742188
333.807617	101417.156250
332.536133	101319.187500
331.265625	101231.093750
329.994141	100702.578125
328.722656	100313.835938
327.450195	100379.273438
326.177734	99973.046875
324.905273	99724.156250
323.632812	99308.375000
322.360352	99800.132812
321.086914	99160.625000
319.813477	99844.617188
318.540039	99862.914062
317.266602	98962.734375
315.992188	99683.632812
314.717773	99111.437500
313.443359	99223.992188
312.167969	99105.093750
310.893555	98994.070312
309.618164	99220.265625
308.342773	99217.054688
307.066406	98790.578125
305.790039	98808.992188
304.514648	98972.343750
303.237305	98702.820312
301.960938	99259.687500
300.683594	99211.421875
299.406250	99319.750000
298.128906	99428.031250
296.851562	99939.320312
295.573242	100520.828125
294.294922	100595.554688
293.016602	101194.312500
291.738281	102125.195312
290.458984	103028.351562
289.179688	102490.820312
287.900391	102944.148438
286.620117	102391.195312
285.340820	102770.132812
284.060547	102574.789062
282.780273	102272.125000
281.499023	102246.773438
280.218750	104953.835938
278.937500	101130.640625
277.656250	100463.632812
276.374023	100643.437500
275.091797	100320.000000
273.810547	100199.476562
272.527344	100663.835938
271.245117	100946.750000
269.961914	102363.718750
268.678711	103265.773438
267.395508	104734.343750
266.112305	107183.953125
264.828125	110900.289062
263.543945	114190.781250
262.259766	121413.921875
260.975586	129654.078125
259.690430	142200.968750
258.405273	156620.375000
257.120117	170859.218750
255.833984	179665.078125
254.548828	179490.781250
253.262695	170395.921875
251.976562	156000.578125
250.689453	142673.656250
249.403320	130704.000000
248.116211	121423.351562
246.828125	116005.117188
245.541016	111752.015625
244.252930	108168.343750
242.964844	105393.476562
241.676758	102751.625000
240.388672	101981.132812
239.099609	99833.640625
237.810547	98829.320312
236.521484	97846.703125
235.231445	96819.867188
233.942383	97206.476562
232.652344	95951.460938
231.362305	95291.773438
230.071289	94527.718750
228.780273	94114.523438
227.489258	94553.546875
226.198242	93385.406250
224.907227	93090.734375
223.615234	93113.570312
222.323242	92530.742188
221.031250	92725.851562
219.738281	92056.265625
218.445312	92009.648438
217.152344	91821.898438
215.859375	91396.429688
214.566406	90853.218750
213.272461	91295.757812
211.978516	90857.101562
210.684570	90211.914062
209.389648	90600.226562
208.094727	90152.281250
206.799805	90009.539062
205.504883	89573.453125
204.209961	89641.218750
202.914062	89373.226562
201.618164	89184.429688
200.321289	89067.054688
199.025391	88621.906250
197.728516	88695.554688
196.431641	88690.132812
195.134766	88332.023438
193.836914	88492.375000
192.539062	88014.984375
191.241211	88061.687500
189.943359	88033.265625
188.644531	87519.640625
187.345703	87239.140625
186.046875	87416.820312
184.748047	87892.695312
183.448242	87292.898438
182.149414	87489.679688
180.848633	87407.523438
179.548828	87258.093750
178.248047	87199.070312
176.948242	87466.828125
175.646484	86906.210938
174.345703	86778.109375
173.043945	87395.398438
171.743164	87069.421875
170.440430	87262.031250
169.138672	86749.960938
167.835938	86900.320312
166.533203	86756.992188
165.230469	86024.648438
163.927734	86750.570312
162.624023	86432.789062
161.320312	86078.695312
160.016602	86209.812500
158.711914	85873.140625
157.408203	85703.335938
156.103516	85278.742188
154.798828	85316.015625
153.493164	85548.648438
152.187500	85112.820312
150.881836	84790.125000
149.576172	84871.484375
148.269531	84007.289062
146.963867	84880.992188
145.657227	84543.265625
144.349609	83964.640625
143.042969	83902.617188
141.735352	84507.953125
140.427734	83979.359375
139.120117	83894.421875
137.811523	83358.492188
136.502930	83245.039062
135.194336	82613.914062
133.885742	82706.914062
132.576172	81761.046875
131.266602	80676.171875
129.957031	80366.703125
128.647461	78828.281250
127.336914	78332.281250
126.026367	77010.414062
124.715820	75113.015625
123.405273	74286.187500
122.093750	73425.343750
120.782227	71386.750000
119.470703	69282.226562
