#Wave		#Intensity
1999.061523	53141.562500
1998.093750	53379.230469
1997.125977	53561.058594
1996.158203	53673.097656
1995.189453	53857.390625
1994.221680	54080.339844
1993.252930	53657.941406
1992.284180	53697.621094
1991.315430	53925.636719
1990.345703	53611.828125
1989.376953	54084.804688
1988.407227	53722.074219
1987.437500	53307.902344
1986.467773	53917.308594
1985.498047	54067.710938
1984.528320	53913.968750
1983.557617	53667.519531
1982.586914	53382.515625
1981.616211	53617.894531
1980.645508	53569.914062
1979.674805	53923.613281
1978.704102	53955.394531
1977.732422	54350.082031
1976.760742	53882.531250
1975.789062	54228.199219
1974.817383	53917.753906
1973.845703	54399.613281
1972.873047	53916.937500
1971.901367	54388.343750
1970.928711	54545.949219
1969.956055	54302.535156
1968.983398	54478.085938
1968.009766	54489.132812
1967.037109	54256.121094
1966.063477	54208.125000
1965.089844	53990.648438
1964.116211	54291.906250
1963.142578	54405.648438
1962.168945	54681.054688
1961.194336	54435.414062
1960.219727	53971.761719
1959.245117	54262.484375
1958.270508	53868.269531
1957.295898	55076.984375
1956.321289	54787.886719
1955.345703	54529.652344
1954.370117	54445.796875
1953.394531	54692.554688
1952.418945	54585.636719
1951.443359	54596.597656
1950.466797	54679.265625
1949.491211	54469.964844
1948.514648	54849.636719
1947.538086	54484.214844
1946.561523	54589.871094
1945.583984	54651.988281
1944.607422	54755.019531
1943.629883	54968.015625
1942.652344	54549.167969
1941.674805	54639.367188
1940.697266	54647.714844
1939.719727	55254.261719
1938.741211	55114.246094
1937.762695	54222.960938
1936.784180	54622.292969
1935.805664	54651.062500
1934.827148	55022.078125
1933.847656	54440.425781
1932.869141	54504.949219
1931.889648	54962.589844
1930.910156	54669.664062
1929.930664	54642.238281
1928.951172	54778.117188
1927.970703	54949.664062
1926.990234	54692.644531
1926.009766	54999.296875
1925.029297	54874.937500
1924.048828	54806.707031
1923.068359	54600.859375
1922.086914	55256.433594
1921.106445	54711.699219
1920.125000	54959.425781
1919.143555	55097.535156
1918.161133	55016.589844
1917.179688	54686.148438
1916.197266	54836.957031
1915.214844	54990.257812
1914.232422	54878.839844
1913.250000	54439.238281
1912.267578	55096.214844
1911.285156	55203.570312
1910.301758	55628.765625
1909.318359	55186.789062
1908.334961	55405.921875
1907.351562	55083.589844
1906.367188	54761.375000
1905.383789	54934.722656
1904.399414	54826.031250
1903.415039	54951.042969
1902.430664	55398.527344
1901.446289	55000.351562
1900.460938	55379.125000
1899.476562	55204.445312
1898.491211	55027.289062
1897.505859	55520.023438
1896.520508	54992.789062
1895.535156	55132.800781
1894.548828	55135.824219
1893.562500	55402.527344
1892.577148	55230.582031
1891.590820	55370.441406
1890.603516	55160.542969
1889.617188	55262.359375
1888.629883	54885.355469
1887.643555	55458.281250
1886.656250	55646.085938
1885.668945	55486.949219
1884.680664	55368.371094
1883.693359	55242.238281
1882.705078	55085.781250
1881.716797	55200.097656
1880.729492	55506.632812
1879.740234	55494.375000
1878.751953	55482.113281
1877.763672	55310.570312
1876.774414	55950.546875
1875.785156	55179.964844
1874.795898	55230.937500
1873.806641	55216.199219
1872.816406	55342.925781
1871.827148	54959.414062
1870.836914	55189.675781
1869.846680	55270.886719
1868.856445	55334.398438
1867.866211	55640.183594
1866.875000	55872.675781
1865.884766	55330.511719
1864.893555	55391.433594
1863.902344	55422.070312
1862.911133	55316.519531
1861.918945	55470.695312
1860.927734	55491.210938
1859.935547	55297.484375
1858.943359	55507.015625
1857.951172	55819.769531
1856.958984	55726.839844
1855.965820	55626.390625
1854.973633	55674.542969
1853.980469	55448.242188
1852.987305	55357.953125
1851.994141	55569.718750
1851.000000	55300.769531
1850.006836	55575.363281
1849.012695	55786.972656
1848.018555	55857.660156
1847.024414	56018.843750
1846.030273	56230.257812
1845.036133	56056.984375
1844.041016	55567.093750
1843.045898	55617.644531
1842.051758	55115.433594
1841.055664	55743.800781
1840.060547	55739.031250
1839.065430	55621.261719
1838.069336	55968.003906
1837.073242	55933.066406
1836.077148	55805.277344
1835.081055	55923.449219
1834.084961	56124.371094
1833.087891	55991.589844
1832.090820	55475.128906
1831.093750	55979.433594
1830.096680	56205.265625
1829.099609	56192.878906
1828.102539	55904.804688
1827.104492	55902.496094
1826.106445	56093.097656
1825.108398	55852.781250
1824.110352	55925.609375
1823.112305	55910.769531
1822.113281	55820.820312
1821.115234	56236.546875
1820.116211	56311.750000
1819.117188	56226.777344
1818.117188	56249.410156
1817.118164	56227.011719
1816.118164	56684.804688
1815.119141	56377.269531
1814.119141	56282.347656
1813.119141	56347.437500
1812.118164	56302.535156
1811.118164	56375.085938
1810.117188	56405.140625
1809.116211	55980.562500
1808.115234	55990.691406
1807.114258	55990.828125
1806.113281	56300.539062
1805.111328	56402.957031
1804.109375	56076.074219
1803.107422	56373.121094
1802.105469	55746.976562
1801.103516	55956.667969
1800.100586	55901.925781
1799.098633	56101.539062
1798.095703	56276.148438
1797.092773	56007.007812
1796.089844	56605.242188
1795.085938	56413.375000
1794.083008	56261.437500
1793.079102	55865.441406
1792.075195	56127.062500
1791.071289	56166.976562
1790.067383	56381.144531
1789.062500	56333.875000
1788.057617	56017.843750
1787.053711	56632.527344
1786.048828	56485.718750
1785.042969	56341.449219
1784.038086	56846.320312
1783.032227	56336.515625
1782.027344	56644.804688
1781.021484	56334.062500
1780.015625	56562.714844
1779.008789	56657.105469
1778.002930	56344.035156
1776.996094	56304.296875
1775.989258	56249.671875
1774.982422	56363.906250
1773.975586	56492.992188
1772.968750	56525.230469
1771.960938	56021.410156
1770.954102	56095.894531
1769.946289	56215.007812
1768.938477	56200.132812
1767.929688	56205.105469
1766.921875	56368.757812
1765.913086	56366.253906
1764.904297	56656.226562
1763.895508	56215.027344
1762.886719	56371.121094
1761.877930	56663.410156
1760.868164	56524.617188
1759.858398	56534.457031
1758.848633	56457.632812
1757.838867	56034.253906
1756.829102	56026.843750
1755.819336	56806.382812
1754.808594	56242.125000
1753.797852	56370.734375
1752.787109	56437.460938
1751.776367	56061.507812
1750.764648	56516.441406
1749.753906	56246.902344
1748.742188	56110.917969
1747.730469	56123.253906
1746.718750	56560.554688
1745.707031	56076.269531
1744.694336	56256.550781
1743.682617	56471.335938
1742.669922	56441.613281
1741.657227	55967.554688
1740.643555	56285.937500
1739.630859	56389.511719
1738.618164	56401.757812
1737.604492	56490.468750
1736.590820	56248.652344
1735.577148	56130.214844
1734.562500	56398.902344
1733.548828	56344.570312
1732.534180	56211.382812
1731.519531	56164.488281
1730.504883	56075.726562
1729.490234	56228.398438
1728.475586	56516.476562
1727.459961	56417.839844
1726.444336	56302.003906
1725.428711	56284.667969
1724.413086	56112.285156
1723.397461	56114.667969
1722.380859	56488.558594
1721.364258	56296.542969
1720.348633	56820.289062
1719.332031	56269.265625
1718.314453	56266.691406
1717.297852	56544.347656
1716.280273	56519.601562
1715.262695	56585.785156
1714.245117	56241.652344
1713.227539	56438.042969
1712.209961	56825.925781
1711.191406	56599.789062
1710.173828	56614.332031
1709.155273	56290.121094
1708.136719	56586.945312
1707.117188	56277.570312
1706.098633	56174.390625
1705.079102	56564.277344
1704.059570	55906.812500
1703.040039	56541.812500
1702.020508	56700.968750
1701.000977	56421.304688
1699.980469	56467.691406
1698.959961	56364.585938
1697.939453	57190.019531
1696.918945	56547.941406
1695.898438	56398.339844
1694.876953	56814.410156
1693.856445	56655.015625
1692.834961	56659.671875
1691.813477	56612.933594
1690.791992	56796.210938
1689.769531	56805.726562
1688.748047	56744.304688
1687.725586	56487.253906
1686.703125	56856.246094
1685.680664	56819.285156
1684.657227	56537.910156
1683.634766	56273.742188
1682.611328	56696.253906
1681.587891	56297.781250
1680.564453	57042.546875
1679.541016	56172.832031
1678.516602	56394.835938
1677.493164	56650.937500
1676.468750	56636.019531
1675.444336	56599.140625
1674.418945	56830.664062
1673.394531	57003.554688
1672.369141	56249.542969
1671.344727	56071.308594
1670.319336	56429.539062
1669.293945	56387.847656
1668.267578	56548.464844
1667.242188	56297.187500
1666.215820	56501.617188
1665.189453	56501.347656
1664.163086	56099.199219
1663.136719	56337.640625
1662.109375	56261.914062
1661.083008	56351.742188
1660.055664	56461.011719
1659.028320	56677.308594
1658.000977	56623.464844
1656.972656	55997.980469
1655.945312	56518.253906
1654.916992	56432.847656
1653.888672	56517.660156
1652.860352	56478.460938
1651.832031	56091.726562
1650.802734	56174.117188
1649.773438	55865.316406
1648.745117	55784.957031
1647.714844	56136.937500
1646.685547	56216.820312
1645.656250	56340.375000
1644.625977	56121.621094
1643.595703	55949.054688
1642.565430	56053.171875
1641.535156	56230.035156
1640.504883	56040.550781
1639.473633	56040.304688
1638.442383	56107.953125
1637.412109	56013.136719
1636.379883	56347.394531
1635.348633	55847.835938
1634.317383	56162.617188
1633.285156	56503.929688
1632.252930	55696.980469
1631.220703	55708.886719
1630.188477	55498.019531
1629.155273	56427.488281
1628.123047	56192.359375
1627.089844	56221.101562
1626.056641	56073.191406
1625.023438	55608.417969
1623.989258	55835.578125
1622.956055	56072.332031
1621.921875	55939.054688
1620.887695	55904.941406
1619.853516	56008.609375
1618.819336	55991.410156
1617.784180	56075.691406
1616.749023	55442.449219
1615.714844	55850.453125
1614.678711	56103.757812
1613.643555	56004.445312
1612.608398	56018.632812
1611.572266	55810.753906
1610.536133	55639.148438
1609.500000	55634.082031
1608.463867	55588.003906
1607.427734	55761.429688
1606.390625	55370.496094
1605.353516	55666.855469
1604.316406	55466.515625
1603.279297	55246.960938
1602.242188	55311.839844
1601.204102	55783.875000
1600.166992	55651.097656
1599.128906	55583.390625
1598.090820	55888.960938
1597.051758	56009.031250
1596.013672	55671.687500
1594.974609	55733.984375
1593.935547	55553.214844
1592.896484	55718.964844
1591.857422	55519.015625
1590.818359	55501.917969
1589.778320	55246.769531
1588.738281	55556.695312
1587.698242	55251.140625
1586.658203	55671.507812
1585.618164	55781.746094
1584.577148	55894.343750
1583.537109	55925.230469
1582.496094	55521.402344
1581.454102	55420.269531
1580.413086	55451.214844
1579.372070	55599.765625
1578.330078	55568.265625
1577.288086	55510.378906
1576.246094	55634.843750
1575.204102	55646.523438
1574.161133	55770.910156
1573.119141	55816.125000
1572.076172	55995.578125
1571.033203	55487.035156
1569.990234	55618.546875
1568.946289	55508.000000
1567.903320	55816.734375
1566.859375	55399.597656
1565.815430	55459.175781
1564.771484	55746.199219
1563.726562	56114.511719
1562.682617	55563.570312
1561.637695	56108.867188
1560.592773	56304.636719
1559.547852	55813.757812
1558.502930	56028.640625
1557.457031	55887.125000
1556.411133	55834.125000
1555.366211	55580.335938
1554.320312	55613.445312
1553.273438	55541.398438
1552.227539	55897.054688
1551.180664	55781.976562
1550.133789	55523.632812
1549.086914	56091.625000
1548.040039	55351.023438
1546.993164	55618.062500
1545.945312	55651.101562
1544.897461	55755.714844
1543.849609	55977.199219
1542.801758	55895.648438
1541.753906	56076.476562
1540.705078	55959.164062
1539.656250	55686.921875
1538.607422	55800.941406
1537.558594	55981.648438
1536.509766	55995.484375
1535.459961	55721.039062
1534.411133	55584.847656
1533.361328	55851.191406
1532.311523	55779.312500
1531.260742	55690.789062
1530.210938	55535.644531
1529.160156	55697.085938
1528.109375	55013.746094
1527.058594	55774.738281
1526.007812	55955.070312
1524.957031	55609.750000
1523.905273	55894.667969
1522.853516	56017.816406
1521.801758	56014.941406
1520.750000	55757.781250
1519.698242	55519.718750
1518.645508	55326.875000
1517.592773	55908.425781
1516.540039	55489.968750
1515.487305	55069.285156
1514.434570	55660.058594
1513.380859	55049.609375
1512.327148	55531.007812
1511.274414	55570.910156
1510.219727	55608.425781
1509.166016	54996.039062
1508.112305	55847.035156
1507.057617	55284.609375
1506.002930	55457.261719
1504.948242	55663.035156
1503.893555	55252.597656
1502.837891	54967.882812
1501.782227	55628.449219
1500.726562	55402.972656
1499.670898	55314.921875
1498.615234	55084.843750
1497.559570	55546.062500
1496.502930	55121.945312
1495.446289	55159.414062
1494.389648	54934.250000
1493.333008	55094.738281
1492.276367	55456.199219
1491.218750	55179.074219
1490.161133	55230.671875
1489.103516	55353.164062
1488.045898	54823.320312
1486.988281	54943.472656
1485.929688	55252.582031
1484.871094	55226.160156
1483.812500	55353.257812
1482.753906	55277.234375
1481.695312	55267.339844
1480.635742	54917.550781
1479.576172	54794.441406
1478.516602	54938.003906
1477.457031	54810.210938
1476.397461	55352.343750
1475.336914	55021.703125
1474.277344	54889.242188
1473.216797	55164.667969
1472.156250	54945.011719
1471.094727	54822.054688
1470.034180	55071.417969
1468.972656	54800.066406
1467.911133	54771.406250
1466.849609	54617.945312
1465.788086	54749.433594
1464.726562	54756.105469
1463.664062	54986.371094
1462.601562	54491.750000
1461.539062	54425.519531
1460.476562	54420.472656
1459.413086	54523.617188
1458.350586	54704.324219
1457.287109	54541.695312
1456.223633	54926.843750
1455.160156	54428.136719
1454.095703	54495.929688
1453.032227	54502.605469
1451.967773	54490.488281
1450.903320	54264.648438
1449.837891	54637.675781
1448.773438	54717.093750
1447.708008	54237.816406
1446.643555	54298.496094
1445.578125	54384.968750
1444.512695	54370.523438
1443.446289	54238.800781
1442.380859	54046.144531
1441.314453	54493.691406
1440.248047	54366.695312
1439.181641	54607.750000
1438.114258	54321.414062
1437.047852	54157.023438
1435.980469	54484.660156
1434.913086	54481.910156
1433.845703	54280.101562
1432.778320	54441.289062
1431.709961	54213.800781
1430.641602	54002.781250
1429.573242	54133.500000
1428.504883	54409.238281
1427.436523	54464.976562
1426.368164	54501.980469
1425.298828	54347.207031
1424.229492	54318.746094
1423.160156	54376.789062
1422.089844	54306.257812
1421.020508	53871.203125
1419.950195	54461.988281
1418.879883	53816.816406
1417.809570	54141.140625
1416.739258	54285.539062
1415.668945	53937.253906
1414.597656	54172.671875
1413.526367	54034.574219
1412.455078	54290.886719
1411.383789	54505.109375
1410.311523	53846.839844
1409.240234	53872.152344
1408.167969	53955.746094
1407.095703	53829.480469
1406.022461	54118.171875
1404.950195	53828.781250
1403.876953	54170.960938
1402.803711	54226.457031
1401.730469	54055.988281
1400.657227	53771.464844
1399.583984	53957.390625
1398.509766	54110.656250
1397.435547	53951.960938
1396.361328	53930.625000
1395.287109	53683.597656
1394.212891	53834.464844
1393.137695	53671.273438
1392.062500	54152.308594
1390.987305	53810.082031
1389.912109	53363.363281
1388.835938	53844.187500
1387.760742	54080.832031
1386.684570	53501.863281
1385.608398	53880.183594
1384.532227	54218.882812
1383.455078	53491.570312
1382.378906	53767.527344
1381.301758	54129.269531
1380.224609	53246.859375
1379.147461	53849.894531
1378.069336	53378.503906
1376.992188	53784.121094
1375.914062	53345.378906
1374.835938	53498.097656
1373.757812	54044.890625
1372.678711	53620.238281
1371.600586	53527.152344
1370.521484	53795.578125
1369.442383	53614.453125
1368.363281	53336.105469
1367.283203	53653.050781
1366.204102	53187.234375
1365.124023	53149.875000
1364.043945	53265.296875
1362.963867	53579.699219
1361.882812	53236.859375
1360.802734	53342.941406
1359.721680	53206.117188
1358.640625	53640.550781
1357.559570	53288.687500
1356.478516	53181.992188
1355.396484	53304.156250
1354.314453	53467.875000
1353.232422	53197.152344
1352.150391	53404.714844
1351.068359	53524.433594
1349.985352	52888.980469
1348.902344	53258.097656
1347.819336	52911.468750
1346.736328	53148.890625
1345.653320	53240.843750
1344.569336	53219.710938
1343.485352	53198.582031
1342.401367	53004.484375
1341.317383	53264.722656
1340.233398	53368.089844
1339.148438	52600.085938
1338.063477	53219.781250
1336.978516	53157.187500
1335.893555	52737.511719
1334.808594	53170.261719
1333.722656	53077.761719
1332.637695	53082.003906
1331.551758	52883.652344
1330.464844	53044.441406
1329.378906	52882.984375
1328.291992	52723.878906
1327.206055	53096.257812
1326.119141	52999.269531
1325.031250	53265.671875
1323.944336	52842.187500
1322.856445	52901.617188
1321.769531	52545.003906
1320.681641	52760.726562
1319.593750	53258.980469
1318.504883	52675.062500
1317.416992	52803.363281
1316.328125	52610.121094
1315.239258	53011.601562
1314.150391	52917.093750
1313.060547	52480.644531
1311.971680	53070.089844
1310.881836	52592.468750
1309.791992	53108.273438
1308.702148	52252.386719
1307.611328	52467.667969
1306.520508	52552.191406
1305.430664	52540.406250
1304.339844	52989.281250
1303.248047	52509.968750
1302.157227	52830.386719
1301.065430	52520.773438
1299.974609	53134.210938
1298.882812	52387.308594
1297.790039	52705.218750
1296.698242	52453.066406
1295.605469	52132.351562
1294.512695	52232.757812
1293.419922	52056.316406
1292.327148	52771.972656
1291.234375	52625.218750
1290.140625	52243.015625
1289.046875	52350.160156
1287.953125	52660.679688
1286.859375	52370.078125
1285.765625	51844.246094
1284.670898	51937.667969
1283.576172	51919.140625
1282.481445	52099.285156
1281.386719	52167.488281
1280.291016	52050.765625
1279.196289	51667.050781
1278.100586	52159.722656
1277.004883	52257.519531
1275.908203	51810.097656
1274.812500	52437.031250
1273.715820	52247.402344
1272.619141	51943.847656
1271.522461	51929.890625
1270.425781	51754.125000
1269.328125	52084.269531
1268.231445	52029.281250
1267.133789	52206.640625
1266.036133	52085.601562
1264.937500	51561.582031
1263.839844	51907.386719
1262.741211	51658.996094
1261.642578	51583.648438
1260.543945	51881.476562
1259.445312	51844.781250
1258.345703	51551.085938
1257.247070	51944.261719
1256.147461	51502.859375
1255.046875	51186.644531
1253.947266	51561.480469
1252.847656	51354.441406
1251.747070	51279.250000
1250.646484	51603.886719
1249.545898	51346.976562
1248.444336	51433.046875
1247.343750	51128.582031
1246.242188	51455.269531
1245.140625	51266.652344
1244.039062	51425.277344
1242.936523	51252.609375
1241.834961	51266.003906
1240.732422	51460.824219
1239.629883	51533.125000
1238.527344	51226.796875
1237.423828	51528.046875
1236.321289	51335.136719
1235.217773	51323.562500
1234.114258	51393.550781
1233.010742	51438.589844
1231.906250	51291.121094
1230.802734	51648.621094
1229.698242	51308.742188
1228.593750	51283.593750
1227.488281	50975.582031
1226.383789	51556.859375
1225.278320	51101.867188
1224.172852	51214.730469
1223.067383	50913.726562
1221.961914	50965.535156
1220.856445	50761.886719
1219.750000	51191.132812
1218.643555	51256.414062
1217.537109	51172.558594
1216.430664	51384.640625
1215.323242	51129.140625
1214.215820	51022.765625
1213.108398	50918.683594
1212.000977	50704.035156
1210.893555	50925.023438
1209.785156	51168.496094
1208.677734	51328.406250
1207.569336	51652.914062
1206.459961	51201.523438
1205.351562	51153.894531
1204.242188	51124.316406
1203.133789	51225.472656
1202.024414	50916.449219
1200.915039	51139.273438
1199.804688	51393.554688
1198.694336	50791.859375
1197.584961	50847.941406
1196.474609	51160.664062
1195.363281	51002.800781
1194.252930	51427.914062
1193.141602	51276.800781
1192.030273	51215.738281
1190.918945	51606.832031
1189.807617	50954.230469
1188.696289	51055.152344
1187.583984	51488.773438
1186.471680	51292.843750
1185.359375	51717.269531
1184.247070	50916.925781
1183.133789	51516.496094
1182.021484	51255.554688
1180.908203	51226.027344
1179.793945	51227.937500
1178.680664	51474.546875
1177.567383	50856.914062
1176.453125	51022.710938
1175.338867	51136.835938
1174.224609	51096.128906
1173.109375	50730.210938
1171.995117	50911.597656
1170.879883	51054.796875
1169.764648	51377.277344
1168.649414	51320.863281
1167.533203	51024.695312
1166.417969	50742.074219
1165.301758	50636.519531
1164.185547	51124.507812
1163.069336	50866.648438
1161.952148	50893.210938
1160.835938	50924.238281
1159.718750	50794.117188
1158.601562	50791.582031
1157.483398	51010.531250
1156.366211	50576.253906
1155.248047	50627.429688
1154.129883	50633.863281
1153.011719	50474.859375
1151.893555	50347.203125
1150.774414	50382.730469
1149.655273	50807.019531
1148.537109	50391.187500
1147.416992	50775.113281
1146.297852	50229.914062
1145.177734	50345.796875
1144.058594	50729.511719
1142.938477	50671.167969
1141.817383	50001.410156
1140.697266	50146.246094
1139.576172	50070.187500
1138.456055	50627.558594
1137.334961	50466.699219
1136.212891	50203.343750
1135.091797	50653.382812
1133.969727	50403.453125
1132.847656	50334.101562
1131.725586	50309.332031
1130.603516	50349.164062
1129.480469	50268.722656
1128.358398	50221.703125
1127.235352	49887.515625
1126.112305	50167.777344
1124.988281	49924.960938
1123.865234	50193.984375
1122.741211	49997.960938
1121.617188	50244.625000
1120.493164	50028.648438
1119.368164	49714.917969
1118.244141	49921.480469
1117.119141	49967.937500
1115.994141	49989.929688
1114.869141	50294.078125
1113.743164	50071.652344
1112.618164	49882.617188
1111.492188	49718.078125
1110.366211	49975.421875
1109.239258	50017.355469
1108.113281	49988.253906
1106.986328	49732.828125
1105.859375	49761.464844
1104.732422	49785.652344
1103.605469	49931.804688
1102.477539	49907.167969
1101.349609	49638.675781
1100.221680	49740.437500
1099.093750	49514.179688
1097.965820	49460.824219
1096.836914	49854.972656
1095.708008	50005.335938
1094.579102	50055.996094
1093.450195	49701.457031
1092.321289	49774.285156
1091.191406	49758.550781
1090.061523	50838.187500
1088.931641	50640.839844
1087.801758	50848.371094
1086.670898	50737.343750
1085.541016	50119.980469
1084.410156	50373.910156
1083.278320	50267.445312
1082.147461	49922.335938
1081.016602	49857.968750
1079.884766	49667.699219
1078.752930	49325.089844
1077.621094	49872.593750
1076.488281	49724.371094
1075.356445	49593.859375
1074.223633	50116.730469
1073.090820	49710.339844
1071.957031	49972.636719
1070.824219	49520.093750
1069.690430	49614.699219
1068.556641	49618.859375
1067.422852	49907.429688
1066.289062	49441.992188
1065.154297	49704.039062
1064.020508	50036.500000
1062.885742	49278.265625
1061.750000	49800.117188
1060.615234	49533.328125
1059.479492	49592.527344
1058.344727	49913.683594
1057.208984	49574.378906
1056.072266	49959.238281
1054.936523	49716.859375
1053.799805	49795.753906
1052.663086	49791.039062
1051.526367	49799.519531
1050.389648	49647.484375
1049.251953	49394.378906
1048.115234	49227.085938
1046.977539	49666.367188
1045.839844	49523.246094
1044.701172	49984.277344
1043.563477	49878.484375
1042.424805	49709.046875
1041.286133	49601.144531
1040.147461	49348.402344
1039.007812	49574.195312
1037.869141	49238.164062
1036.729492	49345.417969
1035.589844	49375.863281
1034.449219	49145.312500
1033.309570	49539.765625
1032.168945	49383.800781
1031.028320	49326.531250
1029.887695	49337.214844
1028.747070	49518.796875
1027.605469	49249.027344
1026.463867	49395.511719
1025.322266	49539.750000
1024.180664	49843.765625
1023.039062	49105.660156
1021.896484	49514.695312
1020.753906	49470.605469
1019.611328	49680.320312
1018.468750	49526.835938
1017.325195	49377.781250
1016.181641	49648.621094
1015.039062	49519.269531
1013.894531	49171.375000
1012.750977	49680.312500
1011.606445	49579.425781
1010.462891	49450.175781
1009.318359	49491.339844
1008.172852	49314.101562
1007.028320	49047.402344
1005.882812	49261.074219
1004.737305	48985.750000
1003.591797	49526.691406
1002.446289	49000.500000
1001.299805	49113.667969
1000.154297	48982.511719
999.007812	49261.371094
997.861328	49431.109375
996.713867	49247.644531
995.567383	48979.246094
994.419922	49665.375000
993.272461	49431.851562
992.125000	49122.175781
990.976562	49069.597656
989.828125	49365.429688
988.680664	48994.968750
987.531250	49192.753906
986.382812	49455.750000
985.234375	49202.968750
984.084961	49626.847656
982.935547	49189.242188
981.786133	49193.253906
980.635742	49062.453125
979.486328	49155.609375
978.335938	49116.148438
977.185547	49550.429688
976.034180	49067.679688
974.883789	48884.878906
973.732422	48734.722656
972.581055	49255.605469
971.429688	48923.058594
970.278320	49217.957031
969.125977	49269.675781
967.973633	49770.539062
966.821289	49216.847656
965.668945	49196.953125
964.516602	49068.628906
963.363281	49445.558594
962.209961	49091.769531
961.056641	49206.289062
959.903320	49277.417969
958.749023	49240.187500
957.595703	49068.656250
956.441406	49204.742188
955.286133	49251.992188
954.131836	49026.421875
952.976562	49359.421875
951.822266	49222.644531
950.666992	48776.480469
949.510742	49680.500000
948.355469	49258.203125
947.199219	49214.531250
946.042969	48930.859375
944.886719	49161.824219
943.730469	48899.875000
942.573242	49044.312500
941.416016	49080.656250
940.258789	48989.527344
939.101562	48939.468750
937.944336	49120.492188
936.786133	48658.031250
935.627930	49104.558594
934.469727	49000.550781
933.311523	48926.785156
932.152344	49025.648438
930.993164	49122.316406
929.833984	48992.488281
928.674805	49281.039062
927.515625	48679.070312
926.355469	48754.167969
925.195312	48848.632812
924.035156	48792.222656
922.875000	49084.839844
921.713867	48888.398438
920.553711	48409.910156
919.392578	48820.855469
918.231445	48534.148438
917.069336	48551.027344
915.908203	48412.957031
914.746094	48662.222656
913.583984	48734.992188
912.420898	48605.562500
911.258789	48704.117188
910.095703	48781.136719
908.932617	48570.074219
907.769531	48694.367188
906.606445	48552.160156
905.442383	48562.539062
904.278320	48590.093750
903.114258	48362.074219
901.950195	48561.429688
900.786133	48608.289062
899.621094	48571.414062
898.456055	48390.769531
897.291016	48883.914062
896.125977	47950.296875
894.959961	48303.925781
893.793945	48683.152344
892.627930	48543.378906
891.461914	47972.781250
890.295898	48199.683594
889.128906	48246.496094
887.961914	48042.625000
886.794922	47819.546875
885.627930	48418.949219
884.459961	48155.195312
883.291992	48137.738281
882.124023	48291.523438
880.956055	47978.710938
879.788086	48183.820312
878.619141	48089.343750
877.450195	48065.488281
876.281250	48035.222656
875.112305	48060.558594
873.942383	48577.554688
872.773438	48397.593750
871.603516	47830.910156
870.432617	48095.546875
869.262695	48043.933594
868.091797	48680.050781
866.920898	48525.847656
865.750000	48519.011719
864.579102	48680.808594
863.407227	48193.753906
862.236328	48063.218750
861.064453	48402.070312
859.892578	48145.695312
858.719727	48283.937500
857.546875	48477.566406
856.375000	48227.707031
855.202148	48387.167969
854.028320	48331.335938
852.855469	48467.277344
851.681641	48390.144531
850.507812	48413.140625
849.333984	48610.738281
848.159180	48548.515625
846.985352	48460.773438
845.810547	48390.085938
844.635742	48432.199219
843.459961	48899.785156
842.285156	48371.730469
841.109375	48496.757812
839.933594	48198.605469
838.757812	48582.972656
837.582031	48338.046875
836.405273	49034.632812
835.228516	48547.492188
834.051758	48634.097656
832.875000	48453.054688
831.697266	48369.757812
830.519531	48445.726562
829.341797	48740.304688
828.164062	48886.207031
826.986328	48677.687500
825.807617	48861.734375
824.628906	48736.015625
823.450195	48563.687500
822.271484	48860.023438
821.091797	48403.652344
819.912109	48229.355469
818.732422	48862.535156
817.552734	48501.757812
816.373047	48715.199219
815.192383	48875.613281
814.011719	48686.554688
812.831055	48220.203125
811.650391	48878.074219
810.468750	49108.171875
809.287109	48986.914062
808.105469	48503.917969
806.923828	48647.226562
805.742188	48422.484375
804.559570	48493.855469
803.376953	48772.378906
802.194336	48754.878906
801.011719	48589.449219
799.828125	48618.468750
798.644531	48512.273438
797.460938	48735.609375
796.277344	48811.035156
795.092773	48709.078125
793.909180	48296.843750
792.724609	48705.777344
791.540039	48048.910156
790.354492	48732.003906
789.169922	48769.367188
787.984375	48380.691406
786.798828	48496.121094
785.612305	48748.535156
784.426758	48457.035156
783.240234	48578.699219
782.053711	48811.992188
780.867188	48200.421875
779.679688	48880.222656
778.493164	48654.238281
777.305664	48950.496094
776.118164	48631.957031
774.930664	48338.789062
773.742188	48382.417969
772.553711	48600.652344
771.365234	48629.488281
770.176758	48673.031250
768.988281	48495.765625
767.798828	48863.078125
766.609375	48168.753906
765.419922	48323.726562
764.229492	48747.589844
763.040039	48471.726562
761.849609	48315.687500
760.659180	48487.308594
759.468750	48432.105469
758.277344	48242.566406
757.086914	48411.996094
755.895508	48369.421875
754.703125	48469.527344
753.511719	48779.359375
752.319336	48319.371094
751.127930	48473.941406
749.934570	48611.683594
748.742188	48478.968750
747.549805	48258.281250
746.356445	48234.636719
745.163086	48688.648438
743.969727	48424.054688
742.775391	48354.312500
741.582031	48322.281250
740.387695	48164.660156
739.193359	48660.109375
737.998047	48416.679688
736.803711	48403.484375
735.608398	48143.457031
734.413086	48416.839844
733.217773	48305.363281
732.021484	48354.910156
730.825195	48364.718750
729.628906	48468.566406
728.432617	48407.304688
727.236328	48452.605469
726.039062	48696.316406
724.841797	48403.238281
723.644531	48515.320312
722.447266	48533.421875
721.249023	48344.886719
720.051758	47880.964844
718.853516	48577.242188
717.654297	48278.238281
716.456055	48077.367188
715.256836	48664.781250
714.057617	48751.613281
712.858398	48313.132812
711.659180	48591.726562
710.458984	48351.386719
709.258789	48569.449219
708.058594	48549.980469
706.858398	48622.148438
705.657227	48096.718750
704.457031	48424.992188
703.255859	48694.863281
702.053711	48311.210938
700.852539	48504.015625
699.650391	48911.003906
698.448242	48494.246094
697.246094	49044.558594
696.043945	48627.925781
694.840820	48749.808594
693.638672	48638.878906
692.434570	48378.386719
691.231445	48338.199219
690.028320	48661.511719
688.824219	49011.695312
687.620117	48653.730469
686.416016	48841.863281
685.210938	48832.746094
684.006836	48526.890625
682.801758	48754.351562
681.596680	48531.593750
680.390625	48796.296875
679.185547	49125.179688
677.979492	48616.371094
676.773438	48441.468750
675.567383	48904.933594
674.360352	48661.660156
673.153320	48544.847656
671.946289	48510.925781
670.739258	48619.906250
669.532227	48608.753906
668.324219	48966.082031
667.116211	48464.343750
665.908203	48709.816406
664.700195	48599.335938
663.491211	48282.042969
662.282227	48748.699219
661.073242	48644.472656
659.864258	48995.105469
658.655273	48936.339844
657.445312	48592.402344
656.235352	48668.035156
655.025391	48437.890625
653.814453	48536.242188
652.604492	48698.566406
651.393555	48478.863281
650.182617	48430.578125
648.970703	48625.851562
647.759766	48457.867188
646.547852	48442.613281
645.335938	48771.847656
644.123047	48533.800781
642.911133	48887.632812
641.698242	48565.125000
640.485352	48461.222656
639.272461	48336.750000
638.059570	48381.277344
636.845703	48234.203125
635.631836	48503.230469
634.417969	48288.226562
633.203125	48287.425781
631.989258	48060.183594
630.774414	48114.992188
629.559570	48406.417969
628.344727	48609.261719
627.128906	47962.500000
625.913086	48329.878906
624.697266	48113.152344
623.481445	48118.535156
622.264648	48241.070312
621.048828	48470.421875
619.832031	47795.632812
618.615234	48035.250000
617.397461	48412.386719
616.180664	48419.746094
614.962891	48082.175781
613.745117	48186.070312
612.526367	48308.390625
611.308594	47839.699219
610.089844	47668.660156
608.871094	48178.679688
607.652344	48161.449219
606.432617	47654.167969
605.212891	48124.949219
603.993164	48179.468750
602.773438	47957.312500
601.553711	48267.949219
600.333008	48322.406250
599.112305	48305.152344
597.891602	48441.484375
596.669922	48129.394531
595.449219	47940.234375
594.227539	48133.855469
593.005859	48315.125000
591.784180	48205.820312
590.561523	48370.640625
589.338867	48099.800781
588.116211	48495.621094
586.893555	48451.769531
585.669922	48070.691406
584.447266	48216.976562
583.223633	48197.714844
581.999023	48392.945312
580.775391	48218.433594
579.550781	48037.855469
578.326172	48194.210938
577.101562	48260.687500
575.876953	48561.839844
574.651367	48554.761719
573.425781	48480.363281
572.200195	48387.632812
570.974609	48311.253906
569.748047	48283.832031
568.522461	47891.515625
567.295898	48400.214844
566.068359	48166.968750
564.841797	48681.535156
563.614258	48134.617188
562.386719	48088.917969
561.159180	48318.125000
559.930664	48184.859375
558.703125	48562.546875
557.474609	48272.578125
556.246094	47986.785156
555.016602	48411.082031
553.788086	48227.066406
552.558594	48350.183594
551.329102	48332.960938
550.098633	47945.777344
548.869141	47985.539062
547.638672	48082.187500
546.408203	47930.929688
545.177734	47611.132812
543.946289	47902.753906
542.714844	47830.800781
541.483398	47752.781250
540.251953	47810.781250
539.020508	47868.757812
537.788086	48070.769531
536.555664	47915.667969
535.323242	47839.722656
534.089844	47875.335938
532.857422	47554.097656
531.624023	47358.660156
530.390625	47781.437500
529.156250	47502.945312
527.922852	47767.507812
526.688477	47622.804688
525.454102	47461.953125
524.218750	47416.574219
522.984375	47128.277344
521.749023	47471.589844
520.513672	47207.671875
519.278320	47190.691406
518.041992	47371.957031
516.805664	47162.808594
515.569336	47162.015625
514.333008	47250.175781
513.096680	47534.375000
511.859375	47309.179688
510.622070	47488.183594
509.384766	47091.355469
508.146484	47312.746094
506.909180	47206.898438
505.670898	47246.460938
504.432617	47271.875000
503.193359	47267.007812
501.955078	47149.128906
500.715820	47495.335938
499.476562	47347.199219
498.236328	47221.300781
496.997070	47355.562500
495.756836	47080.519531
494.516602	47176.457031
493.276367	47167.562500
492.035156	47549.562500
490.793945	47377.417969
489.552734	47211.382812
488.311523	47413.925781
487.070312	47868.058594
485.828125	47305.457031
484.585938	47137.535156
483.343750	47480.785156
482.100586	47343.070312
480.857422	47670.054688
479.615234	47307.109375
478.371094	47050.863281
477.127930	47550.601562
475.883789	47443.140625
474.639648	47438.207031
473.395508	47467.429688
472.151367	47331.914062
470.906250	47142.218750
469.661133	47380.312500
468.416016	47244.882812
467.170898	47316.257812
465.924805	47144.761719
464.679688	47083.691406
463.433594	47227.269531
462.186523	47118.058594
460.940430	46930.679688
459.693359	47064.171875
458.446289	47370.015625
457.199219	47246.824219
455.951172	47149.726562
454.703125	47194.914062
453.455078	46867.500000
452.207031	46972.800781
450.958984	47023.996094
449.709961	47277.375000
448.460938	47038.250000
447.211914	46581.082031
445.961914	46724.343750
444.712891	46981.578125
443.462891	47026.699219
442.212891	46807.839844
440.961914	47100.890625
439.710938	46838.117188
438.460938	46823.265625
437.208984	46788.433594
435.958008	46773.593750
434.706055	46584.972656
433.455078	46542.214844
432.202148	46591.316406
430.950195	46558.546875
429.698242	46358.125000
428.445312	46702.574219
427.192383	46448.328125
425.938477	46062.519531
424.685547	46227.320312
423.431641	46142.796875
422.177734	46094.191406
420.923828	46189.121094
419.668945	46375.687500
418.414062	46177.613281
417.159180	46202.742188
415.904297	46140.214844
414.648438	46121.523438
413.393555	45909.703125
412.137695	46283.222656
410.880859	45878.386719
409.625000	46422.898438
408.368164	45996.300781
407.111328	46457.035156
405.854492	46434.312500
404.597656	46270.421875
403.339844	46345.156250
402.082031	46209.164062
400.824219	46345.480469
399.565430	46310.871094
398.307617	46312.027344
397.048828	46410.503906
395.790039	46258.734375
394.530273	46186.433594
393.271484	46368.242188
392.011719	46371.363281
390.750977	46225.656250
389.491211	46244.667969
388.230469	46555.250000
386.970703	46484.945312
385.708984	46537.597656
384.448242	46312.691406
383.186523	46260.304688
381.925781	46342.687500
380.664062	46034.726562
379.401367	46426.136719
378.139648	46332.167969
376.876953	46477.828125
375.614258	46581.859375
374.350586	46491.867188
373.087891	46540.437500
371.824219	46444.546875
370.560547	46548.492188
369.296875	46703.824219
368.032227	46801.746094
366.767578	46917.425781
365.502930	47155.613281
364.238281	47419.402344
362.972656	47692.972656
361.708008	48472.195312
360.441406	49101.000000
359.175781	49721.667969
357.910156	50969.988281
356.643555	52259.289062
355.376953	52796.097656
354.110352	54214.800781
352.842773	54727.351562
351.575195	55758.503906
350.307617	56647.265625
349.040039	58298.804688
347.772461	60064.058594
346.503906	62187.386719
345.235352	64024.144531
343.966797	63440.566406
342.697266	60798.542969
341.427734	57405.121094
340.158203	55111.832031
338.888672	52657.964844
337.619141	50815.265625
336.348633	49551.898438
335.078125	48914.761719
333.807617	48022.101562
332.536133	47381.558594
331.265625	47464.980469
329.994141	47202.304688
328.722656	46977.082031
327.450195	46506.246094
326.177734	46460.062500
324.905273	46083.812500
323.632812	46053.437500
322.360352	46378.562500
321.086914	46312.792969
319.813477	46146.917969
318.540039	46693.640625
317.266602	46229.449219
315.992188	46079.375000
314.717773	46435.496094
313.443359	46379.585938
312.167969	45992.277344
310.893555	45889.410156
309.618164	45966.925781
308.342773	46248.242188
307.066406	45833.812500
305.790039	46130.714844
304.514648	46016.156250
303.237305	46122.941406
301.960938	46527.308594
300.683594	46673.101562
299.406250	46697.488281
298.128906	47234.578125
296.851562	47536.671875
295.573242	48153.597656
294.294922	48625.554688
293.016602	49527.527344
291.738281	50229.738281
290.458984	49840.953125
289.179688	50396.253906
287.900391	49786.785156
286.620117	50806.835938
285.340820	50578.390625
284.060547	50756.222656
282.780273	50238.906250
281.499023	49827.195312
280.218750	49448.820312
278.937500	48820.812500
277.656250	48665.179688
276.374023	48425.730469
275.091797	48449.648438
273.810547	49138.457031
272.527344	49292.839844
271.245117	50150.796875
269.961914	51098.062500
268.678711	52485.296875
267.395508	53891.484375
266.112305	56528.031250
264.828125	59913.261719
263.543945	64675.597656
262.259766	71339.804688
260.975586	80626.812500
259.690430	93434.062500
258.405273	108654.562500
257.120117	122540.781250
255.833984	131441.421875
254.548828	130002.835938
253.262695	119696.640625
251.976562	105046.664062
250.689453	91799.421875
249.403320	79965.765625
248.116211	71477.601562
246.828125	65461.042969
245.541016	60691.398438
244.252930	57492.160156
242.964844	54818.195312
241.676758	52616.808594
240.388672	51268.015625
239.099609	49475.507812
237.810547	48787.242188
236.521484	47589.253906
235.231445	47101.292969
233.942383	46363.472656
232.652344	45965.074219
231.362305	45326.562500
230.071289	44963.382812
228.780273	44311.746094
227.489258	44119.308594
226.198242	43996.640625
224.907227	43901.117188
223.615234	43205.660156
222.323242	43081.292969
221.031250	42869.917969
219.738281	42643.144531
218.445312	42468.667969
217.152344	41961.691406
215.859375	42193.378906
214.566406	41750.425781
213.272461	41738.570312
211.978516	41858.101562
210.684570	41569.996094
209.389648	41376.632812
208.094727	41135.070312
206.799805	41297.085938
205.504883	41086.507812
204.209961	41161.628906
202.914062	41238.644531
201.618164	41043.625000
200.321289	40634.589844
199.025391	40204.500000
197.728516	40615.175781
196.431641	40256.566406
195.134766	40524.457031
193.836914	40794.167969
192.539062	40115.921875
191.241211	39929.105469
189.943359	40158.328125
188.644531	40162.187500
187.345703	40115.992188
186.046875	39971.652344
184.748047	39885.097656
183.448242	39892.843750
182.149414	39502.410156
180.848633	39704.468750
179.548828	39769.925781
178.248047	40085.273438
176.948242	39700.859375
175.646484	39912.324219
174.345703	39601.097656
173.043945	39693.398438
171.743164	39737.640625
170.440430	40052.625000
169.138672	39616.808594
167.835938	39816.519531
166.533203	39632.320312
165.230469	39549.882812
163.927734	39659.320312
162.624023	39563.480469
161.320312	39308.511719
160.016602	39323.976562
158.711914	39105.566406
157.408203	39339.550781
156.103516	38755.222656
154.798828	39092.636719
153.493164	39192.398438
152.187500	38801.855469
150.881836	38915.035156
149.576172	38729.527344
148.269531	38635.964844
146.963867	38546.257812
145.657227	38584.777344
144.349609	38345.906250
143.042969	38367.230469
141.735352	38457.382812
140.427734	38526.464844
139.120117	38282.050781
137.811523	38045.367188
136.502930	37940.613281
135.194336	37982.992188
133.885742	37624.261719
132.576172	37580.750000
131.266602	37142.042969
129.957031	36749.316406
128.647461	36322.386719
127.336914	35618.941406
126.026367	35350.730469
124.715820	35025.402344
123.405273	34288.277344
122.093750	33881.289062
120.782227	32900.660156
119.470703	32364.486328
