#Wave		#Intensity
1999.061523	28664.566406
1998.093750	28145.318359
1997.125977	28181.738281
1996.158203	28135.507812
1995.189453	28319.087891
1994.221680	28363.201172
1993.252930	28314.378906
1992.284180	28572.666016
1991.315430	28343.210938
1990.345703	28658.154297
1989.376953	28549.988281
1988.407227	28810.628906
1987.437500	28650.902344
1986.467773	28777.380859
1985.498047	28331.615234
1984.528320	28746.728516
1983.557617	28576.814453
1982.586914	28530.613281
1981.616211	28868.201172
1980.645508	28633.970703
1979.674805	28603.228516
1978.704102	28472.095703
1977.732422	28593.250000
1976.760742	28673.185547
1975.789062	28485.500000
1974.817383	28832.966797
1973.845703	28449.839844
1972.873047	28756.042969
1971.901367	28699.601562
1970.928711	28918.248047
1969.956055	28946.615234
1968.983398	28949.273438
1968.009766	28702.697266
1967.037109	28746.496094
1966.063477	28584.800781
1965.089844	28433.431641
1964.116211	28710.904297
1963.142578	28836.816406
1962.168945	28716.281250
1961.194336	28739.496094
1960.219727	28695.990234
1959.245117	29147.613281
1958.270508	28709.054688
1957.295898	28860.472656
1956.321289	28888.765625
1955.345703	28719.650391
1954.370117	28909.431641
1953.394531	29029.953125
1952.418945	28873.710938
1951.443359	28599.681641
1950.466797	28932.781250
1949.491211	28681.880859
1948.514648	29071.177734
1947.538086	28513.140625
1946.561523	28628.457031
1945.583984	28966.373047
1944.607422	29058.539062
1943.629883	29135.324219
1942.652344	29040.710938
1941.674805	28918.000000
1940.697266	28710.953125
1939.719727	28805.634766
1938.741211	29178.882812
1937.762695	28915.675781
1936.784180	29069.035156
1935.805664	29247.884766
1934.827148	28714.056641
1933.847656	28892.906250
1932.869141	29046.156250
1931.889648	28775.583984
1930.910156	28770.550781
1929.930664	28872.701172
1928.951172	29247.826172
1927.970703	28977.400391
1926.990234	28860.105469
1926.009766	29031.019531
1925.029297	29074.384766
1924.048828	29051.455078
1923.068359	29140.679688
1922.086914	29003.066406
1921.106445	29026.017578
1920.125000	29191.621094
1919.143555	29293.490234
1918.161133	29020.970703
1917.179688	28936.962891
1916.197266	28730.789062
1915.214844	29224.630859
1914.232422	29163.529297
1913.250000	29069.373047
1912.267578	29206.744141
1911.285156	29107.523438
1910.301758	28797.263672
1909.318359	29061.736328
1908.334961	28825.314453
1907.351562	29323.523438
1906.367188	29036.310547
1905.383789	29305.632812
1904.399414	29008.359375
1903.415039	29371.568359
1902.430664	29186.123047
1901.446289	29140.386719
1900.460938	29315.521484
1899.476562	28962.662109
1898.491211	29018.494141
1897.505859	29244.300781
1896.520508	29221.419922
1895.535156	29165.574219
1894.548828	29015.917969
1893.562500	29109.716797
1892.577148	29013.355469
1891.590820	28972.789062
1890.603516	29195.783203
1889.617188	29155.195312
1888.629883	29145.019531
1887.643555	29119.650391
1886.656250	29347.523438
1885.668945	29334.783203
1884.680664	29225.851562
1883.693359	29314.376953
1882.705078	29592.664062
1881.716797	29078.917969
1880.729492	29154.769531
1879.740234	29412.701172
1878.751953	29147.076172
1877.763672	29313.894531
1876.774414	29308.753906
1875.785156	29237.900391
1874.795898	29141.798828
1873.806641	29204.906250
1872.816406	29265.464844
1871.827148	29149.201172
1870.836914	29293.078125
1869.846680	29676.761719
1868.856445	29414.070312
1867.866211	29277.664062
1866.875000	29411.320312
1865.884766	29348.130859
1864.893555	29282.437500
1863.902344	29138.580078
1862.911133	29501.638672
1861.918945	29367.876953
1860.927734	29317.347656
1859.935547	29445.783203
1858.943359	28974.423828
1857.951172	29327.109375
1856.958984	29211.123047
1855.965820	29387.335938
1854.973633	29545.859375
1853.980469	29470.175781
1852.987305	29052.164062
1851.994141	29638.525391
1851.000000	29192.949219
1850.006836	29333.748047
1849.012695	29215.398438
1848.018555	29386.324219
1847.024414	29939.416016
1846.030273	29554.511719
1845.036133	29695.119141
1844.041016	29501.404297
1843.045898	29363.041016
1842.051758	29292.558594
1841.055664	29774.740234
1840.060547	29490.726562
1839.065430	29786.878906
1838.069336	29736.453125
1837.073242	29447.572266
1836.077148	29510.162109
1835.081055	29517.523438
1834.084961	29582.585938
1833.087891	29828.234375
1832.090820	29491.931641
1831.093750	29667.294922
1830.096680	29649.544922
1829.099609	29646.839844
1828.102539	29578.970703
1827.104492	29696.556641
1826.106445	29573.582031
1825.108398	29631.005859
1824.110352	29668.373047
1823.112305	29958.636719
1822.113281	29768.099609
1821.115234	29592.648438
1820.116211	29755.128906
1819.117188	29522.185547
1818.117188	29947.314453
1817.118164	29526.810547
1816.118164	29606.650391
1815.119141	29641.451172
1814.119141	29761.242188
1813.119141	30020.970703
1812.118164	29760.767578
1811.118164	29892.964844
1810.117188	29805.259766
1809.116211	30174.701172
1808.115234	29485.085938
1807.114258	29831.976562
1806.113281	29597.041016
1805.111328	29911.337891
1804.109375	29958.484375
1803.107422	29875.857422
1802.105469	29683.486328
1801.103516	29987.566406
1800.100586	29885.023438
1799.098633	29974.515625
1798.095703	29931.841797
1797.092773	29796.955078
1796.089844	29906.347656
1795.085938	29724.167969
1794.083008	30072.701172
1793.079102	29820.806641
1792.075195	30171.689453
1791.071289	29815.285156
1790.067383	30006.708984
1789.062500	29411.500000
1788.057617	30001.115234
1787.053711	29851.511719
1786.048828	29863.667969
1785.042969	29843.482422
1784.038086	29838.224609
1783.032227	29469.939453
1782.027344	29835.167969
1781.021484	30011.361328
1780.015625	29919.091797
1779.008789	29618.134766
1778.002930	29804.205078
1776.996094	29808.888672
1775.989258	29850.818359
1774.982422	29532.699219
1773.975586	29572.179688
1772.968750	29825.107422
1771.960938	29904.226562
1770.954102	29524.287109
1769.946289	29511.638672
1768.938477	29759.431641
1767.929688	29957.539062
1766.921875	29677.031250
1765.913086	29518.097656
1764.904297	29852.460938
1763.895508	29745.591797
1762.886719	29807.244141
1761.877930	29705.371094
1760.868164	29843.789062
1759.858398	29979.681641
1758.848633	29828.308594
1757.838867	29882.458984
1756.829102	29713.830078
1755.819336	30121.859375
1754.808594	29737.984375
1753.797852	29896.007812
1752.787109	29786.849609
1751.776367	29601.068359
1750.764648	29783.755859
1749.753906	29795.802734
1748.742188	29666.960938
1747.730469	29595.003906
1746.718750	29898.623047
1745.707031	29819.236328
1744.694336	29767.042969
1743.682617	29593.865234
1742.669922	29825.666016
1741.657227	29578.478516
1740.643555	29765.769531
1739.630859	29716.095703
1738.618164	29577.615234
1737.604492	29673.531250
1736.590820	29692.955078
1735.577148	29855.394531
1734.562500	29467.964844
1733.548828	29701.873047
1732.534180	29578.322266
1731.519531	29785.019531
1730.504883	29784.685547
1729.490234	29946.931641
1728.475586	29816.031250
1727.459961	29714.724609
1726.444336	29748.867188
1725.428711	29696.839844
1724.413086	29888.484375
1723.397461	29770.007812
1722.380859	29885.300781
1721.364258	29897.238281
1720.348633	29791.117188
1719.332031	30078.470703
1718.314453	29874.009766
1717.297852	29635.205078
1716.280273	29740.562500
1715.262695	29590.326172
1714.245117	29894.654297
1713.227539	30022.011719
1712.209961	29741.636719
1711.191406	29704.455078
1710.173828	30077.285156
1709.155273	29902.593750
1708.136719	29816.314453
1707.117188	29671.175781
1706.098633	29582.511719
1705.079102	29962.386719
1704.059570	29795.222656
1703.040039	29944.429688
1702.020508	29765.066406
1701.000977	29512.230469
1699.980469	29820.705078
1698.959961	29514.039062
1697.939453	30219.281250
1696.918945	30091.460938
1695.898438	30098.378906
1694.876953	30046.529297
1693.856445	30026.521484
1692.834961	29747.062500
1691.813477	29954.708984
1690.791992	29978.769531
1689.769531	29983.246094
1688.748047	29960.816406
1687.725586	29693.837891
1686.703125	29749.707031
1685.680664	30133.142578
1684.657227	29770.947266
1683.634766	29733.904297
1682.611328	30207.541016
1681.587891	30189.976562
1680.564453	30204.167969
1679.541016	30140.208984
1678.516602	29639.212891
1677.493164	30359.005859
1676.468750	29958.218750
1675.444336	30094.451172
1674.418945	29889.044922
1673.394531	30308.220703
1672.369141	29888.208984
1671.344727	29929.246094
1670.319336	29831.291016
1669.293945	29621.232422
1668.267578	30237.501953
1667.242188	29774.003906
1666.215820	29744.361328
1665.189453	29892.558594
1664.163086	29643.699219
1663.136719	29738.287109
1662.109375	29915.619141
1661.083008	29881.103516
1660.055664	29973.160156
1659.028320	29960.544922
1658.000977	29843.312500
1656.972656	29677.468750
1655.945312	29713.552734
1654.916992	29832.298828
1653.888672	29741.914062
1652.860352	29829.009766
1651.832031	29869.896484
1650.802734	29794.126953
1649.773438	29511.871094
1648.745117	29846.712891
1647.714844	29627.693359
1646.685547	29843.408203
1645.656250	29622.035156
1644.625977	29757.566406
1643.595703	29912.466797
1642.565430	29962.968750
1641.535156	29884.867188
1640.504883	29971.738281
1639.473633	29663.261719
1638.442383	29602.224609
1637.412109	29655.154297
1636.379883	29412.341797
1635.348633	29685.826172
1634.317383	29496.398438
1633.285156	30026.572266
1632.252930	29752.371094
1631.220703	29703.494141
1630.188477	29642.527344
1629.155273	29596.107422
1628.123047	29767.548828
1627.089844	29512.992188
1626.056641	29553.722656
1625.023438	29543.634766
1623.989258	29473.078125
1622.956055	29644.382812
1621.921875	29605.265625
1620.887695	29554.072266
1619.853516	29744.603516
1618.819336	29550.820312
1617.784180	29572.146484
1616.749023	29516.160156
1615.714844	29445.699219
1614.678711	29496.007812
1613.643555	29490.765625
1612.608398	29318.953125
1611.572266	29579.242188
1610.536133	29728.429688
1609.500000	29404.656250
1608.463867	29573.117188
1607.427734	29336.314453
1606.390625	29772.402344
1605.353516	29202.917969
1604.316406	29347.183594
1603.279297	29286.529297
1602.242188	29512.660156
1601.204102	29784.488281
1600.166992	29364.853516
1599.128906	29723.314453
1598.090820	29286.982422
1597.051758	29756.078125
1596.013672	29091.207031
1594.974609	29750.304688
1593.935547	29458.654297
1592.896484	29650.697266
1591.857422	29835.457031
1590.818359	29493.437500
1589.778320	29519.449219
1588.738281	29391.580078
1587.698242	29621.919922
1586.658203	29441.201172
1585.618164	29806.013672
1584.577148	29365.853516
1583.537109	29339.005859
1582.496094	29605.169922
1581.454102	29554.275391
1580.413086	29500.998047
1579.372070	29834.195312
1578.330078	29464.091797
1577.288086	29478.041016
1576.246094	29664.718750
1575.204102	29587.474609
1574.161133	29675.736328
1573.119141	29727.998047
1572.076172	29782.636719
1571.033203	29410.597656
1569.990234	29393.375000
1568.946289	29527.113281
1567.903320	29378.111328
1566.859375	29518.986328
1565.815430	29480.199219
1564.771484	29381.564453
1563.726562	29725.847656
1562.682617	29596.085938
1561.637695	29669.783203
1560.592773	29561.609375
1559.547852	29503.710938
1558.502930	29546.289062
1557.457031	29794.509766
1556.411133	29633.785156
1555.366211	29798.230469
1554.320312	29544.345703
1553.273438	29813.892578
1552.227539	29538.587891
1551.180664	29507.042969
1550.133789	29568.656250
1549.086914	29854.718750
1548.040039	29345.617188
1546.993164	29667.421875
1545.945312	29552.341797
1544.897461	29360.939453
1543.849609	29267.423828
1542.801758	29379.087891
1541.753906	29650.509766
1540.705078	29568.912109
1539.656250	29372.902344
1538.607422	29775.281250
1537.558594	29290.921875
1536.509766	29457.261719
1535.459961	29649.748047
1534.411133	29570.613281
1533.361328	29474.833984
1532.311523	29533.865234
1531.260742	29804.761719
1530.210938	29780.398438
1529.160156	29839.339844
1528.109375	29691.242188
1527.058594	29769.208984
1526.007812	29754.378906
1524.957031	29256.775391
1523.905273	29544.017578
1522.853516	29621.949219
1521.801758	29474.042969
1520.750000	29449.765625
1519.698242	29380.351562
1518.645508	29615.046875
1517.592773	29509.996094
1516.540039	29735.080078
1515.487305	29413.974609
1514.434570	29358.865234
1513.380859	29688.289062
1512.327148	29189.375000
1511.274414	29352.621094
1510.219727	29506.318359
1509.166016	29586.431641
1508.112305	28985.916016
1507.057617	29369.578125
1506.002930	29364.330078
1504.948242	29378.041016
1503.893555	29171.363281
1502.837891	29436.248047
1501.782227	29286.484375
1500.726562	29567.832031
1499.670898	29550.705078
1498.615234	29287.349609
1497.559570	29085.636719
1496.502930	29392.847656
1495.446289	29181.718750
1494.389648	29429.654297
1493.333008	29289.556641
1492.276367	29085.650391
1491.218750	29052.072266
1490.161133	29874.353516
1489.103516	29122.048828
1488.045898	29466.617188
1486.988281	29080.910156
1485.929688	28959.941406
1484.871094	29129.556641
1483.812500	29256.597656
1482.753906	29234.833984
1481.695312	29312.230469
1480.635742	29188.962891
1479.576172	29063.378906
1478.516602	29032.220703
1477.457031	28951.531250
1476.397461	28901.531250
1475.336914	28971.824219
1474.277344	28785.080078
1473.216797	29117.042969
1472.156250	29137.755859
1471.094727	28821.464844
1470.034180	28903.482422
1468.972656	29225.759766
1467.911133	29401.886719
1466.849609	29048.091797
1465.788086	29106.458984
1464.726562	28769.318359
1463.664062	29044.251953
1462.601562	28860.201172
1461.539062	28923.263672
1460.476562	28939.251953
1459.413086	28898.787109
1458.350586	29154.632812
1457.287109	29048.308594
1456.223633	28836.240234
1455.160156	28739.410156
1454.095703	29032.693359
1453.032227	29196.650391
1451.967773	28895.439453
1450.903320	28709.416016
1449.837891	28669.046875
1448.773438	29009.029297
1447.708008	28705.714844
1446.643555	28756.894531
1445.578125	28934.765625
1444.512695	29084.417969
1443.446289	29076.855469
1442.380859	28975.486328
1441.314453	28864.773438
1440.248047	29211.255859
1439.181641	28976.306641
1438.114258	28659.414062
1437.047852	28815.951172
1435.980469	28714.728516
1434.913086	28725.974609
1433.845703	28727.845703
1432.778320	28568.154297
1431.709961	29014.849609
1430.641602	29063.476562
1429.573242	28725.953125
1428.504883	28954.775391
1427.436523	28921.505859
1426.368164	28750.250000
1425.298828	29109.898438
1424.229492	28845.144531
1423.160156	28627.236328
1422.089844	28745.972656
1421.020508	28850.642578
1419.950195	28723.968750
1418.879883	28700.123047
1417.809570	28846.781250
1416.739258	28617.425781
1415.668945	28789.726562
1414.597656	28695.851562
1413.526367	28588.005859
1412.455078	28564.203125
1411.383789	28853.039062
1410.311523	28675.240234
1409.240234	28499.835938
1408.167969	28893.455078
1407.095703	28498.919922
1406.022461	28883.072266
1404.950195	28733.388672
1403.876953	28835.410156
1402.803711	28550.662109
1401.730469	28419.750000
1400.657227	28619.582031
1399.583984	28286.126953
1398.509766	28329.929688
1397.435547	28788.035156
1396.361328	28626.937500
1395.287109	28917.291016
1394.212891	28725.982422
1393.137695	28990.628906
1392.062500	28820.302734
1390.987305	28703.515625
1389.912109	28644.884766
1388.835938	28416.603516
1387.760742	28439.378906
1386.684570	28450.527344
1385.608398	28443.087891
1384.532227	28677.199219
1383.455078	28249.402344
1382.378906	28348.798828
1381.301758	28615.296875
1380.224609	28447.683594
1379.147461	28588.757812
1378.069336	28282.000000
1376.992188	28564.550781
1375.914062	28232.394531
1374.835938	28153.109375
1373.757812	28410.025391
1372.678711	28462.861328
1371.600586	28596.794922
1370.521484	28151.382812
1369.442383	28377.990234
1368.363281	28182.941406
1367.283203	28476.621094
1366.204102	28527.066406
1365.124023	28362.187500
1364.043945	28512.164062
1362.963867	28488.515625
1361.882812	28462.560547
1360.802734	28353.330078
1359.721680	28221.007812
1358.640625	28091.044922
1357.559570	28451.306641
1356.478516	28147.964844
1355.396484	28228.414062
1354.314453	28119.335938
1353.232422	28292.179688
1352.150391	28116.134766
1351.068359	28180.357422
1349.985352	28101.382812
1348.902344	28498.058594
1347.819336	28421.359375
1346.736328	28208.517578
1345.653320	28268.044922
1344.569336	28230.648438
1343.485352	28135.595703
1342.401367	28049.800781
1341.317383	27818.763672
1340.233398	28288.683594
1339.148438	28076.123047
1338.063477	27900.513672
1336.978516	28183.515625
1335.893555	28330.488281
1334.808594	28035.144531
1333.722656	28085.361328
1332.637695	28280.623047
1331.551758	28190.339844
1330.464844	28189.857422
1329.378906	28053.595703
1328.291992	28083.048828
1327.206055	28045.773438
1326.119141	28013.111328
1325.031250	28003.457031
1323.944336	27858.148438
1322.856445	27705.992188
1321.769531	28190.564453
1320.681641	28268.205078
1319.593750	27858.720703
1318.504883	28145.437500
1317.416992	27832.585938
1316.328125	27997.494141
1315.239258	27772.027344
1314.150391	27886.380859
1313.060547	27720.685547
1311.971680	27940.564453
1310.881836	28018.113281
1309.791992	27953.412109
1308.702148	27918.548828
1307.611328	28229.949219
1306.520508	27892.416016
1305.430664	27999.697266
1304.339844	27657.742188
1303.248047	27891.050781
1302.157227	27801.246094
1301.065430	28075.673828
1299.974609	27798.072266
1298.882812	27490.800781
1297.790039	27836.101562
1296.698242	27609.046875
1295.605469	27816.888672
1294.512695	27585.337891
1293.419922	27527.736328
1292.327148	27863.564453
1291.234375	27652.708984
1290.140625	27508.238281
1289.046875	27510.123047
1287.953125	27644.572266
1286.859375	27870.378906
1285.765625	27444.937500
1284.670898	27759.789062
1283.576172	27656.558594
1282.481445	27710.927734
1281.386719	27918.248047
1280.291016	27634.707031
1279.196289	27736.976562
1278.100586	27569.945312
1277.004883	27752.039062
1275.908203	27635.246094
1274.812500	27575.509766
1273.715820	27549.998047
1272.619141	27652.166016
1271.522461	27268.777344
1270.425781	27525.929688
1269.328125	27224.730469
1268.231445	27529.636719
1267.133789	27620.320312
1266.036133	27232.722656
1264.937500	27195.916016
1263.839844	27136.357422
1262.741211	27338.572266
1261.642578	27238.042969
1260.543945	27035.158203
1259.445312	27396.521484
1258.345703	27393.835938
1257.247070	27263.800781
1256.147461	27074.697266
1255.046875	27367.587891
1253.947266	27105.800781
1252.847656	27432.666016
1251.747070	27168.687500
1250.646484	27145.593750
1249.545898	27201.998047
1248.444336	27306.066406
1247.343750	27460.044922
1246.242188	26780.892578
1245.140625	27139.166016
1244.039062	27390.660156
1242.936523	27220.080078
1241.834961	26902.121094
1240.732422	27069.605469
1239.629883	27112.314453
1238.527344	27050.724609
1237.423828	27052.621094
1236.321289	27371.789062
1235.217773	27162.902344
1234.114258	27076.421875
1233.010742	26937.875000
1231.906250	27043.957031
1230.802734	27231.509766
1229.698242	27249.208984
1228.593750	27092.621094
1227.488281	27295.900391
1226.383789	26919.890625
1225.278320	27209.085938
1224.172852	27226.767578
1223.067383	27059.013672
1221.961914	27167.148438
1220.856445	26981.380859
1219.750000	27173.113281
1218.643555	26935.433594
1217.537109	26948.621094
1216.430664	26882.740234
1215.323242	27153.392578
1214.215820	26825.564453
1213.108398	27267.707031
1212.000977	27052.835938
1210.893555	26998.275391
1209.785156	26788.041016
1208.677734	27265.960938
1207.569336	27177.552734
1206.459961	27041.818359
1205.351562	27228.562500
1204.242188	27230.382812
1203.133789	27164.580078
1202.024414	27123.589844
1200.915039	27206.535156
1199.804688	26980.828125
1198.694336	27180.886719
1197.584961	27202.972656
1196.474609	26975.132812
1195.363281	27078.283203
1194.252930	27109.375000
1193.141602	26926.677734
1192.030273	27279.511719
1190.918945	27218.318359
1189.807617	26860.273438
1188.696289	27111.736328
1187.583984	26962.921875
1186.471680	27005.224609
1185.359375	26946.378906
1184.247070	27114.498047
1183.133789	27138.775391
1182.021484	26853.068359
1180.908203	27113.187500
1179.793945	27007.216797
1178.680664	27215.576172
1177.567383	26934.546875
1176.453125	27118.156250
1175.338867	26931.482422
1174.224609	26632.708984
1173.109375	27051.775391
1171.995117	26829.332031
1170.879883	26887.230469
1169.764648	27142.375000
1168.649414	27023.130859
1167.533203	26955.470703
1166.417969	26916.958984
1165.301758	27257.029297
1164.185547	27001.228516
1163.069336	26651.470703
1161.952148	26619.755859
1160.835938	26646.248047
1159.718750	26688.396484
1158.601562	26685.775391
1157.483398	26723.425781
1156.366211	26696.191406
1155.248047	26720.404297
1154.129883	26842.990234
1153.011719	26527.357422
1151.893555	26828.746094
1150.774414	26586.974609
1149.655273	26640.226562
1148.537109	26601.865234
1147.416992	26867.279297
1146.297852	26493.917969
1145.177734	26830.699219
1144.058594	26566.861328
1142.938477	26588.804688
1141.817383	26503.626953
1140.697266	26516.646484
1139.576172	26543.044922
1138.456055	26350.863281
1137.334961	26410.728516
1136.212891	26499.552734
1135.091797	26392.185547
1133.969727	26289.314453
1132.847656	26280.066406
1131.725586	26731.984375
1130.603516	26535.550781
1129.480469	26555.210938
1128.358398	26588.222656
1127.235352	26514.361328
1126.112305	26600.785156
1124.988281	26266.574219
1123.865234	26464.259766
1122.741211	26490.578125
1121.617188	26345.621094
1120.493164	26400.859375
1119.368164	26262.640625
1118.244141	26171.152344
1117.119141	26570.886719
1115.994141	26270.490234
1114.869141	26447.882812
1113.743164	26112.074219
1112.618164	26569.267578
1111.492188	26553.316406
1110.366211	26384.181641
1109.239258	26532.527344
1108.113281	26481.078125
1106.986328	26547.251953
1105.859375	26444.791016
1104.732422	26768.244141
1103.605469	26339.775391
1102.477539	26168.667969
1101.349609	26392.230469
1100.221680	26391.845703
1099.093750	26282.869141
1097.965820	26643.658203
1096.836914	26313.146484
1095.708008	26292.835938
1094.579102	26425.332031
1093.450195	26409.433594
1092.321289	26274.003906
1091.191406	26762.761719
1090.061523	26806.554688
1088.931641	27272.910156
1087.801758	27736.880859
1086.670898	28273.666016
1085.541016	27799.716797
1084.410156	27184.445312
1083.278320	26377.091797
1082.147461	26219.779297
1081.016602	26427.109375
1079.884766	26309.609375
1078.752930	26355.603516
1077.621094	26260.240234
1076.488281	26081.005859
1075.356445	26188.826172
1074.223633	26124.443359
1073.090820	26241.041016
1071.957031	26211.970703
1070.824219	26182.912109
1069.690430	26332.515625
1068.556641	26411.496094
1067.422852	26338.316406
1066.289062	26498.828125
1065.154297	26553.486328
1064.020508	25949.257812
1062.885742	26167.031250
1061.750000	26067.523438
1060.615234	26496.619141
1059.479492	26364.058594
1058.344727	26227.140625
1057.208984	26211.333984
1056.072266	26466.226562
1054.936523	26030.113281
1053.799805	26298.142578
1052.663086	26145.958984
1051.526367	26189.554688
1050.389648	26252.919922
1049.251953	26307.468750
1048.115234	26155.390625
1046.977539	26053.910156
1045.839844	26312.794922
1044.701172	26198.140625
1043.563477	26096.705078
1042.424805	26219.289062
1041.286133	26357.195312
1040.147461	26031.880859
1039.007812	25959.076172
1037.869141	25936.765625
1036.729492	26276.457031
1035.589844	26188.291016
1034.449219	25898.388672
1033.309570	26003.277344
1032.168945	26092.781250
1031.028320	25787.710938
1029.887695	26319.900391
1028.747070	26076.248047
1027.605469	26078.041016
1026.463867	26062.308594
1025.322266	26094.759766
1024.180664	26002.396484
1023.039062	25835.636719
1021.896484	25946.900391
1020.753906	26346.974609
1019.611328	25948.324219
1018.468750	25998.253906
1017.325195	26008.794922
1016.181641	26227.066406
1015.039062	26018.931641
1013.894531	26060.064453
1012.750977	26022.501953
1011.606445	26148.832031
1010.462891	25916.828125
1009.318359	26191.660156
1008.172852	26143.177734
1007.028320	25900.382812
1005.882812	25899.996094
1004.737305	25958.541016
1003.591797	26322.580078
1002.446289	25940.285156
1001.299805	26406.722656
1000.154297	25987.470703
999.007812	25849.679688
997.861328	26062.962891
996.713867	25861.988281
995.567383	26214.673828
994.419922	25933.119141
993.272461	25738.812500
992.125000	25886.564453
990.976562	25977.636719
989.828125	25783.425781
988.680664	25983.335938
987.531250	25834.902344
986.382812	25893.269531
985.234375	25716.619141
984.084961	26092.601562
982.935547	25776.771484
981.786133	25756.814453
980.635742	25967.333984
979.486328	25723.435547
978.335938	25890.414062
977.185547	25761.791016
976.034180	25900.453125
974.883789	26032.544922
973.732422	25586.869141
972.581055	25853.599609
971.429688	25742.464844
970.278320	26263.037109
969.125977	26023.818359
967.973633	26053.750000
966.821289	25925.298828
965.668945	26124.425781
964.516602	26028.537109
963.363281	26132.164062
962.209961	25932.248047
961.056641	26020.679688
959.903320	25866.365234
958.749023	25913.607422
957.595703	26036.650391
956.441406	26034.027344
955.286133	26033.568359
954.131836	26195.490234
952.976562	26268.599609
951.822266	25891.505859
950.666992	25923.527344
949.510742	25918.755859
948.355469	26138.947266
947.199219	26118.998047
946.042969	25930.392578
944.886719	25687.810547
943.730469	25925.169922
942.573242	25537.878906
941.416016	26008.535156
940.258789	25871.966797
939.101562	26109.113281
937.944336	26164.771484
936.786133	26049.837891
935.627930	26101.166016
934.469727	26038.083984
933.311523	26046.236328
932.152344	25801.951172
930.993164	25745.425781
929.833984	25710.488281
928.674805	25651.843750
927.515625	25729.042969
926.355469	25909.677734
925.195312	25631.199219
924.035156	25904.439453
922.875000	25766.093750
921.713867	25957.355469
920.553711	26053.789062
919.392578	25618.353516
918.231445	25800.921875
917.069336	25849.972656
915.908203	25528.867188
914.746094	25590.859375
913.583984	25627.013672
912.420898	25529.802734
911.258789	25688.525391
910.095703	25827.835938
908.932617	25743.537109
907.769531	25620.583984
906.606445	25899.498047
905.442383	25540.234375
904.278320	25672.994141
903.114258	25517.925781
901.950195	25453.095703
900.786133	25482.748047
899.621094	25950.257812
898.456055	25653.609375
897.291016	25706.806641
896.125977	25942.330078
894.959961	25590.076172
893.793945	25606.798828
892.627930	25340.498047
891.461914	25777.412109
890.295898	25494.029297
889.128906	25587.892578
887.961914	25572.457031
886.794922	25529.177734
885.627930	25543.738281
884.459961	25273.501953
883.291992	25407.992188
882.124023	25409.720703
880.956055	25216.699219
879.788086	25881.765625
878.619141	25365.691406
877.450195	25519.283203
876.281250	25523.123047
875.112305	25411.501953
873.942383	25387.566406
872.773438	25617.980469
871.603516	25735.050781
870.432617	25426.906250
869.262695	25648.638672
868.091797	25487.988281
866.920898	25489.683594
865.750000	25322.714844
864.579102	25715.060547
863.407227	25449.937500
862.236328	25443.099609
861.064453	25655.998047
859.892578	25757.904297
858.719727	25514.291016
857.546875	25469.060547
856.375000	25340.705078
855.202148	25557.683594
854.028320	25393.130859
852.855469	25565.275391
851.681641	25428.470703
850.507812	25344.962891
849.333984	25723.572266
848.159180	25620.876953
846.985352	25714.052734
845.810547	25766.757812
844.635742	25727.943359
843.459961	25710.416016
842.285156	25563.144531
841.109375	25720.039062
839.933594	25370.820312
838.757812	25655.244141
837.582031	25712.134766
836.405273	25677.623047
835.228516	25536.886719
834.051758	25795.574219
832.875000	25516.810547
831.697266	25951.656250
830.519531	25713.304688
829.341797	25804.064453
828.164062	25684.677734
826.986328	25652.335938
825.807617	25679.406250
824.628906	25882.523438
823.450195	25447.210938
822.271484	25934.425781
821.091797	25654.019531
819.912109	25791.279297
818.732422	25814.048828
817.552734	25502.037109
816.373047	25520.613281
815.192383	25829.351562
814.011719	25665.740234
812.831055	25813.423828
811.650391	25791.703125
810.468750	25928.724609
809.287109	25843.505859
808.105469	25794.285156
806.923828	26113.140625
805.742188	25613.414062
804.559570	25970.242188
803.376953	25885.089844
802.194336	25850.697266
801.011719	25801.521484
799.828125	25598.119141
798.644531	25901.800781
797.460938	25618.193359
796.277344	25577.539062
795.092773	25551.679688
793.909180	25610.267578
792.724609	26042.404297
791.540039	25594.433594
790.354492	25615.000000
789.169922	25751.576172
787.984375	25685.634766
786.798828	25775.753906
785.612305	25471.599609
784.426758	26014.908203
783.240234	25765.615234
782.053711	25965.214844
780.867188	25928.792969
779.679688	25683.863281
778.493164	25655.929688
777.305664	25668.007812
776.118164	25507.462891
774.930664	25723.718750
773.742188	25624.246094
772.553711	25857.230469
771.365234	25578.966797
770.176758	25826.591797
768.988281	25790.251953
767.798828	25619.373047
766.609375	25910.990234
765.419922	25683.406250
764.229492	25775.287109
763.040039	25871.335938
761.849609	25828.718750
760.659180	25616.015625
759.468750	25667.943359
758.277344	25564.507812
757.086914	26088.664062
755.895508	25387.125000
754.703125	25590.113281
753.511719	25543.402344
752.319336	25832.271484
751.127930	25603.099609
749.934570	25480.931641
748.742188	25713.054688
747.549805	25852.876953
746.356445	25638.533203
745.163086	25778.314453
743.969727	25892.908203
742.775391	25553.023438
741.582031	25992.150391
740.387695	25591.662109
739.193359	25588.992188
737.998047	25372.876953
736.803711	25725.923828
735.608398	25465.931641
734.413086	25329.431641
733.217773	25590.279297
732.021484	25468.437500
730.825195	25750.062500
729.628906	25557.179688
728.432617	25713.310547
727.236328	25917.433594
726.039062	25634.808594
724.841797	25782.482422
723.644531	25673.283203
722.447266	25607.960938
721.249023	25784.773438
720.051758	25786.230469
718.853516	25670.849609
717.654297	25661.894531
716.456055	25834.388672
715.256836	25408.361328
714.057617	25705.927734
712.858398	26049.238281
711.659180	25931.843750
710.458984	25862.417969
709.258789	25984.675781
708.058594	25731.968750
706.858398	25737.583984
705.657227	25605.777344
704.457031	25836.238281
703.255859	25877.210938
702.053711	25705.910156
700.852539	25902.929688
699.650391	25704.644531
698.448242	25741.445312
697.246094	25489.197266
696.043945	25792.134766
694.840820	25870.468750
693.638672	25637.037109
692.434570	25644.720703
691.231445	25824.830078
690.028320	25946.712891
688.824219	25640.751953
687.620117	26076.140625
686.416016	25932.189453
685.210938	25667.910156
684.006836	25891.382812
682.801758	25915.597656
681.596680	25939.800781
680.390625	26053.173828
679.185547	25809.849609
677.979492	25979.177734
676.773438	25833.376953
675.567383	25652.396484
674.360352	25645.535156
673.153320	25783.689453
671.946289	25673.240234
670.739258	25842.398438
669.532227	25560.125000
668.324219	25799.623047
667.116211	25428.464844
665.908203	25835.509766
664.700195	26002.404297
663.491211	25718.291016
662.282227	25833.439453
661.073242	26264.912109
659.864258	25767.964844
658.655273	25905.773438
657.445312	25911.263672
656.235352	26084.117188
655.025391	25703.255859
653.814453	25768.677734
652.604492	25885.699219
651.393555	25676.455078
650.182617	25997.814453
648.970703	25997.080078
647.759766	25804.437500
646.547852	25768.664062
645.335938	25732.904297
644.123047	25913.705078
642.911133	26063.505859
641.698242	25770.005859
640.485352	25647.697266
639.272461	25778.914062
638.059570	25615.435547
636.845703	25511.759766
635.631836	25585.253906
634.417969	25701.964844
633.203125	25779.509766
631.989258	25644.998047
630.774414	25619.617188
629.559570	25686.843750
628.344727	25385.775391
627.128906	25638.144531
625.913086	25542.853516
624.697266	25558.634766
623.481445	25483.951172
622.264648	25542.896484
621.048828	25562.775391
619.832031	25816.875000
618.615234	25701.109375
617.397461	25503.228516
616.180664	25471.755859
614.962891	25770.847656
613.745117	25722.912109
612.526367	25512.857422
611.308594	25563.480469
610.089844	25591.515625
608.871094	25722.099609
607.652344	25444.519531
606.432617	25728.863281
605.212891	25603.087891
603.993164	25719.218750
602.773438	25620.130859
601.553711	25746.457031
600.333008	25569.556641
599.112305	25605.724609
597.891602	25713.550781
596.669922	25710.775391
595.449219	25523.773438
594.227539	25631.548828
593.005859	25557.171875
591.784180	25896.076172
590.561523	25723.494141
589.338867	25573.468750
588.116211	25752.693359
586.893555	25903.226562
585.669922	25530.464844
584.447266	25758.634766
583.223633	25445.287109
581.999023	25583.505859
580.775391	25586.875000
579.550781	25559.611328
578.326172	25636.478516
577.101562	25815.376953
575.876953	25835.019531
574.651367	25719.986328
573.425781	25741.677734
572.200195	25749.083984
570.974609	25901.275391
569.748047	25788.349609
568.522461	25971.052734
567.295898	25534.083984
566.068359	25657.669922
564.841797	25738.419922
563.614258	25729.511719
562.386719	25492.503906
561.159180	25679.121094
559.930664	25702.798828
558.703125	25628.763672
557.474609	25674.826172
556.246094	25908.062500
555.016602	25524.808594
553.788086	25637.980469
552.558594	25775.511719
551.329102	25756.435547
550.098633	25733.298828
548.869141	25429.695312
547.638672	25666.726562
546.408203	25438.417969
545.177734	26032.863281
543.946289	25465.410156
542.714844	25724.587891
541.483398	25372.597656
540.251953	25485.550781
539.020508	25568.021484
537.788086	25666.691406
536.555664	25381.914062
535.323242	25277.757812
534.089844	25504.175781
532.857422	25519.652344
531.624023	25490.525391
530.390625	25392.501953
529.156250	25517.406250
527.922852	25354.582031
526.688477	25376.142578
525.454102	25243.781250
524.218750	25368.615234
522.984375	25375.986328
521.749023	25286.201172
520.513672	25358.337891
519.278320	25483.052734
518.041992	25344.744141
516.805664	25226.712891
515.569336	25403.953125
514.333008	25267.755859
513.096680	25341.830078
511.859375	25064.224609
510.622070	25223.171875
509.384766	25006.296875
508.146484	25213.669922
506.909180	25499.722656
505.670898	25256.666016
504.432617	25257.962891
503.193359	25255.222656
501.955078	25258.535156
500.715820	25203.335938
499.476562	25081.589844
498.236328	25074.843750
496.997070	25356.449219
495.756836	25321.429688
494.516602	25109.042969
493.276367	25279.638672
492.035156	25172.111328
490.793945	25074.697266
489.552734	25347.919922
488.311523	25467.992188
487.070312	25336.347656
485.828125	25273.191406
484.585938	25022.884766
483.343750	25366.283203
482.100586	25435.935547
480.857422	25215.908203
479.615234	25275.505859
478.371094	25113.902344
477.127930	25330.300781
475.883789	25281.300781
474.639648	25184.089844
473.395508	25422.449219
472.151367	25435.730469
470.906250	25169.832031
469.661133	25096.806641
468.416016	25208.513672
467.170898	24980.943359
465.924805	25331.453125
464.679688	25400.914062
463.433594	25432.228516
462.186523	24931.994141
460.940430	25218.070312
459.693359	25287.494141
458.446289	25386.960938
457.199219	25275.937500
455.951172	25331.281250
454.703125	25538.867188
453.455078	25175.480469
452.207031	24890.337891
450.958984	25125.919922
449.709961	25215.265625
448.460938	25230.517578
447.211914	25159.707031
445.961914	25164.957031
444.712891	24920.140625
443.462891	24835.425781
442.212891	24982.710938
440.961914	25181.921875
439.710938	25027.238281
438.460938	25076.468750
437.208984	25001.789062
435.958008	24951.109375
434.706055	24856.505859
433.455078	24797.882812
432.202148	25140.621094
430.950195	24796.488281
429.698242	25063.248047
428.445312	25002.630859
427.192383	24790.398438
425.938477	24779.724609
424.685547	24671.324219
423.431641	24710.525391
422.177734	24865.343750
420.923828	24832.732422
419.668945	24632.724609
418.414062	25020.595703
417.159180	24595.509766
415.904297	24676.500000
414.648438	24458.746094
413.393555	24704.988281
412.137695	24877.480469
410.880859	24516.505859
409.625000	24947.656250
408.368164	24541.042969
407.111328	24609.994141
405.854492	24782.335938
404.597656	24614.591797
403.339844	24629.810547
402.082031	24702.662109
400.824219	24781.449219
399.565430	24703.238281
398.307617	24619.095703
397.048828	24703.806641
395.790039	24532.320312
394.530273	24563.408203
393.271484	24741.375000
392.011719	24518.375000
390.750977	24495.869141
389.491211	24903.875000
388.230469	24728.570312
386.970703	24828.990234
385.708984	24742.988281
384.448242	24738.296875
383.186523	24699.912109
381.925781	24707.117188
380.664062	24605.349609
379.401367	24565.025391
378.139648	24548.482422
376.876953	24726.000000
375.614258	24586.685547
374.350586	24451.380859
373.087891	24391.330078
371.824219	24616.222656
370.560547	24251.507812
369.296875	24577.212891
368.032227	24501.357422
366.767578	24937.609375
365.502930	24452.523438
364.238281	24461.716797
362.972656	24445.216797
361.708008	24515.650391
360.441406	24708.521484
359.175781	24589.287109
357.910156	24412.835938
356.643555	24560.207031
355.376953	24668.046875
354.110352	24773.873047
352.842773	24867.816406
351.575195	24928.191406
350.307617	24706.505859
349.040039	24893.085938
347.772461	24805.552734
346.503906	24976.271484
345.235352	25170.572266
343.966797	25073.181641
342.697266	25084.175781
341.427734	25036.078125
340.158203	24546.880859
338.888672	24441.800781
337.619141	24258.019531
336.348633	24239.630859
335.078125	24179.925781
333.807617	24102.535156
332.536133	24239.578125
331.265625	23949.804688
329.994141	24047.496094
328.722656	23952.492188
327.450195	23932.212891
326.177734	23984.650391
324.905273	23875.955078
323.632812	23932.308594
322.360352	24002.388672
321.086914	23938.912109
319.813477	23871.533203
318.540039	23882.693359
317.266602	23876.187500
315.992188	23775.498047
314.717773	23886.718750
313.443359	23837.058594
312.167969	23879.585938
310.893555	23798.576172
309.618164	23931.265625
308.342773	23844.392578
307.066406	23734.037109
305.790039	23608.048828
304.514648	24161.812500
303.237305	23869.322266
301.960938	23704.216797
300.683594	23746.685547
299.406250	23826.326172
298.128906	23845.271484
296.851562	23711.595703
295.573242	23687.517578
294.294922	23898.144531
293.016602	23832.970703
291.738281	23707.214844
290.458984	23831.708984
289.179688	24003.056641
287.900391	24035.607422
286.620117	24007.582031
285.340820	24083.087891
284.060547	24078.498047
282.780273	24048.525391
281.499023	24055.652344
280.218750	24015.935547
278.937500	23786.951172
277.656250	23723.884766
276.374023	23602.324219
275.091797	23535.416016
273.810547	23540.675781
272.527344	23306.146484
271.245117	23369.919922
269.961914	23324.539062
268.678711	23565.583984
267.395508	23557.191406
266.112305	23548.800781
264.828125	23700.087891
263.543945	24044.058594
262.259766	24613.691406
260.975586	25114.992188
259.690430	25647.232422
258.405273	26710.361328
257.120117	27263.486328
255.833984	27997.251953
254.548828	28211.611328
253.262695	27689.142578
251.976562	26937.533203
250.689453	26258.109375
249.403320	25186.496094
248.116211	24727.156250
246.828125	24077.669922
245.541016	23941.035156
244.252930	23406.482422
242.964844	23561.167969
241.676758	23182.134766
240.388672	22968.164062
239.099609	22874.542969
237.810547	22773.197266
236.521484	22821.201172
235.231445	22805.207031
233.942383	22736.882812
232.652344	22668.583984
231.362305	22683.626953
230.071289	22615.361328
228.780273	22481.267578
227.489258	22310.429688
226.198242	22492.033203
224.907227	22150.910156
223.615234	22427.304688
222.323242	22270.150391
221.031250	22202.046875
219.738281	22267.433594
218.445312	21978.890625
217.152344	21910.878906
215.859375	21958.882812
214.566406	22047.455078
213.272461	22002.656250
211.978516	22170.400391
210.684570	22050.255859
209.389648	21764.062500
208.094727	21825.548828
206.799805	21535.646484
205.504883	21859.660156
204.209961	21685.648438
202.914062	21542.576172
201.618164	21598.253906
200.321289	21586.402344
199.025391	21194.667969
197.728516	21485.593750
196.431641	21410.156250
195.134766	21253.802734
193.836914	21509.861328
192.539062	21128.144531
191.241211	21378.347656
189.943359	21252.927734
188.644531	21243.080078
187.345703	21140.833984
186.046875	21165.652344
184.748047	21048.062500
183.448242	21336.466797
182.149414	21124.632812
180.848633	21001.345703
179.548828	21195.371094
178.248047	21077.882812
176.948242	21248.753906
175.646484	21067.880859
174.345703	20908.210938
173.043945	20977.201172
171.743164	21526.316406
170.440430	20978.757812
169.138672	20704.029297
167.835938	20728.851562
166.533203	21047.292969
165.230469	21012.554688
163.927734	21173.507812
162.624023	20864.476562
161.320312	20768.425781
160.016602	20908.238281
158.711914	20869.720703
157.408203	20687.474609
156.103516	20773.566406
154.798828	20656.544922
153.493164	20627.679688
152.187500	20575.841797
150.881836	20606.357422
149.576172	20267.388672
148.269531	20292.207031
146.963867	20347.632812
145.657227	20464.261719
144.349609	20318.777344
143.042969	20276.625000
141.735352	20077.689453
140.427734	20070.009766
139.120117	20127.320312
137.811523	20119.632812
136.502930	20003.035156
135.194336	19915.138672
133.885742	19661.107422
132.576172	19771.906250
131.266602	19447.355469
129.957031	19210.738281
128.647461	18859.701172
127.336914	18632.826172
126.026367	18339.265625
124.715820	17998.130859
123.405273	17927.925781
122.093750	17384.894531
120.782227	17053.669922
119.470703	16385.224609
