#Wave		#Intensity
1999.061523	63681.527344
1998.093750	64327.359375
1997.125977	63874.476562
1996.158203	63679.992188
1995.189453	63950.328125
1994.221680	63859.152344
1993.252930	63938.359375
1992.284180	64445.917969
1991.315430	63443.898438
1990.345703	63505.066406
1989.376953	64515.390625
1988.407227	63784.648438
1987.437500	64247.949219
1986.467773	64584.765625
1985.498047	63944.597656
1984.528320	64448.851562
1983.557617	64149.035156
1982.586914	64042.531250
1981.616211	64039.085938
1980.645508	64043.371094
1979.674805	64338.597656
1978.704102	64577.082031
1977.732422	64424.253906
1976.760742	64402.722656
1975.789062	64062.144531
1974.817383	64565.472656
1973.845703	64363.871094
1972.873047	64465.792969
1971.901367	64783.656250
1970.928711	64731.218750
1969.956055	64439.761719
1968.983398	64395.105469
1968.009766	64548.308594
1967.037109	64321.250000
1966.063477	64435.878906
1965.089844	64327.046875
1964.116211	64865.281250
1963.142578	63965.722656
1962.168945	64788.734375
1961.194336	64389.917969
1960.219727	64191.371094
1959.245117	64777.890625
1958.270508	65038.460938
1957.295898	64762.960938
1956.321289	64351.664062
1955.345703	64748.035156
1954.370117	64611.132812
1953.394531	65091.878906
1952.418945	64650.054688
1951.443359	64743.796875
1950.466797	64781.152344
1949.491211	64828.734375
1948.514648	64953.109375
1947.538086	64928.960938
1946.561523	64958.570312
1945.583984	64647.804688
1944.607422	64935.871094
1943.629883	64696.843750
1942.652344	65307.070312
1941.674805	65011.796875
1940.697266	64501.843750
1939.719727	65208.921875
1938.741211	65141.292969
1937.762695	65492.789062
1936.784180	65228.390625
1935.805664	64997.289062
1934.827148	64758.601562
1933.847656	65007.761719
1932.869141	65019.375000
1931.889648	65286.261719
1930.910156	65091.074219
1929.930664	65503.316406
1928.951172	65234.160156
1927.970703	65396.222656
1926.990234	64943.527344
1926.009766	65222.886719
1925.029297	65122.238281
1924.048828	64878.863281
1923.068359	65632.156250
1922.086914	64861.261719
1921.106445	65117.445312
1920.125000	65511.105469
1919.143555	64842.503906
1918.161133	65154.578125
1917.179688	65306.128906
1916.197266	65197.964844
1915.214844	65189.097656
1914.232422	65052.992188
1913.250000	65217.167969
1912.267578	65086.191406
1911.285156	65743.734375
1910.301758	65218.531250
1909.318359	64698.597656
1908.334961	65350.769531
1907.351562	65186.824219
1906.367188	65622.671875
1905.383789	64889.593750
1904.399414	64977.304688
1903.415039	65311.355469
1902.430664	64766.628906
1901.446289	65049.812500
1900.460938	65046.035156
1899.476562	65222.464844
1898.491211	65170.437500
1897.505859	65245.289062
1896.520508	64853.339844
1895.535156	65564.843750
1894.548828	64972.628906
1893.562500	65795.414062
1892.577148	65289.558594
1891.590820	65212.218750
1890.603516	65585.984375
1889.617188	65397.128906
1888.629883	65649.125000
1887.643555	65366.609375
1886.656250	65286.781250
1885.668945	65224.699219
1884.680664	65494.261719
1883.693359	65816.875000
1882.705078	65957.171875
1881.716797	65259.941406
1880.729492	65627.953125
1879.740234	65315.468750
1878.751953	65958.976562
1877.763672	65565.632812
1876.774414	65546.546875
1875.785156	65259.558594
1874.795898	65675.187500
1873.806641	65491.859375
1872.816406	65447.531250
1871.827148	66016.968750
1870.836914	65333.664062
1869.846680	65476.218750
1868.856445	65366.281250
1867.866211	65415.390625
1866.875000	65628.500000
1865.884766	65816.312500
1864.893555	65479.347656
1863.902344	66007.601562
1862.911133	65816.976562
1861.918945	65830.640625
1860.927734	66005.625000
1859.935547	65721.843750
1858.943359	65778.343750
1857.951172	66242.984375
1856.958984	65760.289062
1855.965820	66214.695312
1854.973633	66019.242188
1853.980469	66350.070312
1852.987305	65920.546875
1851.994141	65863.671875
1851.000000	66071.031250
1850.006836	65621.648438
1849.012695	65954.757812
1848.018555	65860.179688
1847.024414	65838.554688
1846.030273	66068.351562
1845.036133	66207.570312
1844.041016	65989.851562
1843.045898	66875.359375
1842.051758	66471.671875
1841.055664	66507.718750
1840.060547	66498.546875
1839.065430	65939.445312
1838.069336	66093.562500
1837.073242	66322.929688
1836.077148	66577.312500
1835.081055	66482.804688
1834.084961	66478.648438
1833.087891	66848.257812
1832.090820	66375.031250
1831.093750	66333.273438
1830.096680	66221.328125
1829.099609	66229.742188
1828.102539	66416.093750
1827.104492	65888.218750
1826.106445	66257.453125
1825.108398	66458.726562
1824.110352	66522.171875
1823.112305	66192.460938
1822.113281	66936.914062
1821.115234	66842.539062
1820.116211	66945.906250
1819.117188	66971.671875
1818.117188	66406.976562
1817.118164	66895.585938
1816.118164	66223.554688
1815.119141	67074.593750
1814.119141	66632.781250
1813.119141	66468.578125
1812.118164	66539.359375
1811.118164	66622.601562
1810.117188	66760.781250
1809.116211	66594.164062
1808.115234	66554.976562
1807.114258	66126.257812
1806.113281	66361.781250
1805.111328	66761.968750
1804.109375	66263.554688
1803.107422	66603.726562
1802.105469	66624.429688
1801.103516	67016.796875
1800.100586	66725.679688
1799.098633	66314.968750
1798.095703	67126.007812
1797.092773	66548.359375
1796.089844	67067.476562
1795.085938	67152.843750
1794.083008	66936.734375
1793.079102	67144.140625
1792.075195	66723.882812
1791.071289	66759.445312
1790.067383	67200.789062
1789.062500	66887.765625
1788.057617	66992.953125
1787.053711	66732.328125
1786.048828	66902.179688
1785.042969	66775.976562
1784.038086	66679.656250
1783.032227	67150.281250
1782.027344	66887.359375
1781.021484	67330.437500
1780.015625	66617.757812
1779.008789	67090.539062
1778.002930	66447.703125
1776.996094	66714.179688
1775.989258	66945.796875
1774.982422	66869.445312
1773.975586	66659.046875
1772.968750	66848.351562
1771.960938	66367.531250
1770.954102	66698.234375
1769.946289	67098.289062
1768.938477	66984.765625
1767.929688	66293.453125
1766.921875	66405.734375
1765.913086	66686.554688
1764.904297	66253.429688
1763.895508	66670.468750
1762.886719	66690.921875
1761.877930	66671.726562
1760.868164	66655.007812
1759.858398	66781.929688
1758.848633	67183.640625
1757.838867	66456.351562
1756.829102	66989.156250
1755.819336	66499.718750
1754.808594	67215.414062
1753.797852	66406.984375
1752.787109	66823.164062
1751.776367	66724.812500
1750.764648	66544.906250
1749.753906	66681.492188
1748.742188	66578.265625
1747.730469	66393.531250
1746.718750	66772.195312
1745.707031	66874.039062
1744.694336	66723.921875
1743.682617	66746.710938
1742.669922	66648.507812
1741.657227	66513.312500
1740.643555	66817.492188
1739.630859	67131.429688
1738.618164	66460.812500
1737.604492	66708.093750
1736.590820	67081.070312
1735.577148	66753.578125
1734.562500	67045.046875
1733.548828	66688.085938
1732.534180	66575.257812
1731.519531	66627.562500
1730.504883	67384.492188
1729.490234	67426.781250
1728.475586	66865.640625
1727.459961	66750.398438
1726.444336	66391.453125
1725.428711	66527.421875
1724.413086	67687.179688
1723.397461	66890.242188
1722.380859	66273.187500
1721.364258	66942.851562
1720.348633	66525.210938
1719.332031	66798.695312
1718.314453	66880.312500
1717.297852	66666.921875
1716.280273	66753.445312
1715.262695	67395.273438
1714.245117	67059.054688
1713.227539	66533.812500
1712.209961	67020.601562
1711.191406	67251.843750
1710.173828	67350.429688
1709.155273	66776.406250
1708.136719	66992.835938
1707.117188	66983.437500
1706.098633	66738.523438
1705.079102	67428.250000
1704.059570	66933.179688
1703.040039	66712.914062
1702.020508	66990.398438
1701.000977	67441.820312
1699.980469	67601.437500
1698.959961	66851.929688
1697.939453	66702.906250
1696.918945	66914.000000
1695.898438	67132.367188
1694.876953	66750.750000
1693.856445	67409.726562
1692.834961	67118.750000
1691.813477	66774.039062
1690.791992	67016.687500
1689.769531	67587.070312
1688.748047	67195.976562
1687.725586	67037.343750
1686.703125	67563.398438
1685.680664	67050.281250
1684.657227	67038.406250
1683.634766	67412.656250
1682.611328	66863.171875
1681.587891	67039.437500
1680.564453	66834.601562
1679.541016	66937.539062
1678.516602	67003.812500
1677.493164	67267.804688
1676.468750	67363.281250
1675.444336	66846.187500
1674.418945	67129.578125
1673.394531	67388.460938
1672.369141	67052.125000
1671.344727	67291.421875
1670.319336	67377.023438
1669.293945	67055.484375
1668.267578	67457.945312
1667.242188	67051.210938
1666.215820	67441.343750
1665.189453	67168.734375
1664.163086	67112.984375
1663.136719	67422.531250
1662.109375	67206.054688
1661.083008	66573.390625
1660.055664	66992.382812
1659.028320	67182.476562
1658.000977	67087.843750
1656.972656	66947.015625
1655.945312	66998.382812
1654.916992	67100.789062
1653.888672	66831.171875
1652.860352	67035.664062
1651.832031	67142.859375
1650.802734	67400.679688
1649.773438	66880.945312
1648.745117	66567.867188
1647.714844	67155.937500
1646.685547	66893.914062
1645.656250	66809.210938
1644.625977	66947.851562
1643.595703	66860.734375
1642.565430	67292.921875
1641.535156	66645.335938
1640.504883	67353.937500
1639.473633	66791.445312
1638.442383	66689.875000
1637.412109	67046.539062
1636.379883	67083.117188
1635.348633	66630.125000
1634.317383	66744.296875
1633.285156	67401.101562
1632.252930	66582.523438
1631.220703	66912.179688
1630.188477	66488.656250
1629.155273	66476.851562
1628.123047	66690.148438
1627.089844	66888.851562
1626.056641	66760.828125
1625.023438	66724.773438
1623.989258	67012.851562
1622.956055	66449.562500
1621.921875	66425.664062
1620.887695	66488.804688
1619.853516	67076.429688
1618.819336	66392.679688
1617.784180	66180.335938
1616.749023	66533.359375
1615.714844	66279.992188
1614.678711	66521.781250
1613.643555	66934.914062
1612.608398	66408.812500
1611.572266	66599.757812
1610.536133	66380.382812
1609.500000	66414.421875
1608.463867	66349.539062
1607.427734	66154.437500
1606.390625	66333.179688
1605.353516	66413.007812
1604.316406	66249.328125
1603.279297	66497.851562
1602.242188	66237.812500
1601.204102	66753.679688
1600.166992	66980.289062
1599.128906	65990.523438
1598.090820	66537.460938
1597.051758	66491.914062
1596.013672	66232.140625
1594.974609	66634.328125
1593.935547	66721.132812
1592.896484	66444.609375
1591.857422	66338.968750
1590.818359	67140.078125
1589.778320	66757.812500
1588.738281	66611.296875
1587.698242	65950.414062
1586.658203	66291.968750
1585.618164	66030.265625
1584.577148	66335.640625
1583.537109	66307.015625
1582.496094	66364.859375
1581.454102	66247.390625
1580.413086	66466.070312
1579.372070	65926.156250
1578.330078	66754.398438
1577.288086	66260.203125
1576.246094	65914.929688
1575.204102	66104.679688
1574.161133	66080.914062
1573.119141	66517.531250
1572.076172	66752.617188
1571.033203	66357.210938
1569.990234	66383.734375
1568.946289	66407.851562
1567.903320	66700.265625
1566.859375	66221.312500
1565.815430	66096.953125
1564.771484	66731.664062
1563.726562	66487.554688
1562.682617	66597.773438
1561.637695	66454.281250
1560.592773	66234.273438
1559.547852	66650.687500
1558.502930	66679.468750
1557.457031	66143.859375
1556.411133	66574.398438
1555.366211	66732.257812
1554.320312	66572.171875
1553.273438	66333.281250
1552.227539	66648.781250
1551.180664	66586.734375
1550.133789	66751.601562
1549.086914	66677.609375
1548.040039	66658.554688
1546.993164	66606.085938
1545.945312	66551.242188
1544.897461	66396.195312
1543.849609	66479.781250
1542.801758	66341.492188
1541.753906	66696.953125
1540.705078	66646.898438
1539.656250	66799.515625
1538.607422	66551.601562
1537.558594	66349.062500
1536.509766	66542.148438
1535.459961	66735.164062
1534.411133	66544.601562
1533.361328	66649.421875
1532.311523	66873.265625
1531.260742	67044.640625
1530.210938	66720.851562
1529.160156	66430.492188
1528.109375	66451.945312
1527.058594	66599.476562
1526.007812	66618.507812
1524.957031	66511.476562
1523.905273	66554.289062
1522.853516	66806.289062
1521.801758	67020.171875
1520.750000	66580.429688
1519.698242	66734.859375
1518.645508	66532.890625
1517.592773	66264.476562
1516.540039	66331.007812
1515.487305	66385.640625
1514.434570	66278.820312
1513.380859	66024.875000
1512.327148	66444.984375
1511.274414	66537.507812
1510.219727	65939.671875
1509.166016	66335.843750
1508.112305	66326.359375
1507.057617	66186.468750
1506.002930	66689.054688
1504.948242	66328.718750
1503.893555	66383.218750
1502.837891	66350.023438
1501.782227	66274.203125
1500.726562	65930.765625
1499.670898	66262.343750
1498.615234	66371.242188
1497.559570	66011.398438
1496.502930	66551.046875
1495.446289	66162.898438
1494.389648	65994.914062
1493.333008	66080.093750
1492.276367	65718.250000
1491.218750	65997.343750
1490.161133	65928.796875
1489.103516	66373.210938
1488.045898	66280.984375
1486.988281	65694.921875
1485.929688	66257.265625
1484.871094	65886.367188
1483.812500	66056.429688
1482.753906	65640.828125
1481.695312	65987.929688
1480.635742	65919.468750
1479.576172	66079.953125
1478.516602	65688.234375
1477.457031	65751.968750
1476.397461	65509.039062
1475.336914	65862.851562
1474.277344	65752.023438
1473.216797	65518.648438
1472.156250	65594.125000
1471.094727	65836.898438
1470.034180	65869.875000
1468.972656	65669.617188
1467.911133	65747.359375
1466.849609	65443.570312
1465.788086	65405.949219
1464.726562	65822.679688
1463.664062	65999.179688
1462.601562	65794.390625
1461.539062	65090.871094
1460.476562	65775.523438
1459.413086	65770.789062
1458.350586	65244.011719
1457.287109	65281.695312
1456.223633	65488.613281
1455.160156	65462.773438
1454.095703	65098.558594
1453.032227	65425.210938
1451.967773	65526.238281
1450.903320	65580.250000
1449.837891	65272.625000
1448.773438	65206.925781
1447.708008	65500.390625
1446.643555	65239.871094
1445.578125	65350.191406
1444.512695	65305.625000
1443.446289	65481.570312
1442.380859	65118.039062
1441.314453	65467.460938
1440.248047	64841.488281
1439.181641	65310.371094
1438.114258	65429.898438
1437.047852	65544.687500
1435.980469	65064.386719
1434.913086	64844.246094
1433.845703	64886.476562
1432.778320	64689.859375
1431.709961	64924.058594
1430.641602	64652.601562
1429.573242	65055.214844
1428.504883	65310.273438
1427.436523	65324.285156
1426.368164	64847.109375
1425.298828	64758.296875
1424.229492	64954.765625
1423.160156	64971.156250
1422.089844	64992.214844
1421.020508	65113.746094
1419.950195	64889.437500
1418.879883	64767.996094
1417.809570	65111.375000
1416.739258	64877.839844
1415.668945	64982.925781
1414.597656	65260.710938
1413.526367	64903.570312
1412.455078	64674.898438
1411.383789	64448.640625
1410.311523	65062.210938
1409.240234	64707.687500
1408.167969	64602.789062
1407.095703	64961.871094
1406.022461	65253.226562
1404.950195	64863.949219
1403.876953	64768.410156
1402.803711	64209.289062
1401.730469	64724.167969
1400.657227	64821.992188
1399.583984	64605.437500
1398.509766	64868.535156
1397.435547	64612.472656
1396.361328	64351.843750
1395.287109	64649.738281
1394.212891	64417.109375
1393.137695	64126.414062
1392.062500	64075.347656
1390.987305	64228.910156
1389.912109	64633.480469
1388.835938	64317.375000
1387.760742	64394.113281
1386.684570	64459.207031
1385.608398	64517.300781
1384.532227	64008.660156
1383.455078	65018.906250
1382.378906	64663.589844
1381.301758	64245.718750
1380.224609	64426.796875
1379.147461	64410.562500
1378.069336	64062.558594
1376.992188	64106.703125
1375.914062	64698.171875
1374.835938	64264.500000
1373.757812	64225.113281
1372.678711	64424.492188
1371.600586	64178.816406
1370.521484	64290.074219
1369.442383	64199.730469
1368.363281	64280.824219
1367.283203	64544.847656
1366.204102	64144.218750
1365.124023	64213.699219
1364.043945	64428.972656
1362.963867	63973.031250
1361.882812	64354.863281
1360.802734	64174.394531
1359.721680	64373.320312
1358.640625	63922.332031
1357.559570	64266.890625
1356.478516	64056.503906
1355.396484	63906.281250
1354.314453	64289.937500
1353.232422	63908.671875
1352.150391	64107.375000
1351.068359	63899.500000
1349.985352	63680.148438
1348.902344	63770.261719
1347.819336	63747.226562
1346.736328	63948.074219
1345.653320	64111.925781
1344.569336	63678.156250
1343.485352	64079.585938
1342.401367	63821.253906
1341.317383	64243.261719
1340.233398	63798.242188
1339.148438	63809.789062
1338.063477	63890.472656
1336.978516	64266.066406
1335.893555	63957.281250
1334.808594	64295.867188
1333.722656	63828.273438
1332.637695	63522.027344
1331.551758	64219.644531
1330.464844	63381.722656
1329.378906	63888.093750
1328.291992	63924.886719
1327.206055	63345.121094
1326.119141	63476.300781
1325.031250	63605.128906
1323.944336	63858.066406
1322.856445	63301.710938
1321.769531	63602.875000
1320.681641	63281.160156
1319.593750	63821.167969
1318.504883	63784.378906
1317.416992	63398.488281
1316.328125	63561.566406
1315.239258	63400.855469
1314.150391	63809.492188
1313.060547	63570.753906
1311.971680	63334.390625
1310.881836	63456.023438
1309.791992	64245.136719
1308.702148	63939.968750
1307.611328	63637.199219
1306.520508	63719.703125
1305.430664	63155.765625
1304.339844	63568.343750
1303.248047	63556.859375
1302.157227	63387.300781
1301.065430	63783.570312
1299.974609	62876.589844
1298.882812	63277.382812
1297.790039	63206.425781
1296.698242	63087.425781
1295.605469	62771.652344
1294.512695	62959.371094
1293.419922	63316.308594
1292.327148	63028.105469
1291.234375	62982.410156
1290.140625	63233.964844
1289.046875	62875.054688
1287.953125	63083.105469
1286.859375	62740.347656
1285.765625	62806.683594
1284.670898	62749.640625
1283.576172	62847.921875
1282.481445	62749.781250
1281.386719	62512.402344
1280.291016	62768.175781
1279.196289	62770.515625
1278.100586	62426.003906
1277.004883	62672.519531
1275.908203	62738.738281
1274.812500	62731.949219
1273.715820	62218.941406
1272.619141	62663.652344
1271.522461	62766.285156
1270.425781	62834.691406
1269.328125	62429.121094
1268.231445	62796.003906
1267.133789	62570.527344
1266.036133	62796.046875
1264.937500	62206.332031
1263.839844	62638.996094
1262.741211	62347.695312
1261.642578	62263.582031
1260.543945	62297.816406
1259.445312	62338.859375
1258.345703	62489.058594
1257.247070	62161.648438
1256.147461	61909.382812
1255.046875	61870.890625
1253.947266	62030.148438
1252.847656	62005.277344
1251.747070	62380.289062
1250.646484	61935.113281
1249.545898	61953.417969
1248.444336	62337.308594
1247.343750	61713.015625
1246.242188	62137.664062
1245.140625	61534.054688
1244.039062	61761.164062
1242.936523	61788.539062
1241.834961	61486.996094
1240.732422	61895.414062
1239.629883	62185.769531
1238.527344	61673.472656
1237.423828	61780.160156
1236.321289	61469.816406
1235.217773	61816.675781
1234.114258	61646.886719
1233.010742	61801.054688
1231.906250	62027.632812
1230.802734	61998.269531
1229.698242	61781.023438
1228.593750	61763.027344
1227.488281	60910.003906
1226.383789	61806.238281
1225.278320	61276.996094
1224.172852	61464.914062
1223.067383	62014.570312
1221.961914	61413.222656
1220.856445	61926.515625
1219.750000	61451.960938
1218.643555	61429.511719
1217.537109	61339.289062
1216.430664	61782.191406
1215.323242	61597.078125
1214.215820	61416.542969
1213.108398	61554.398438
1212.000977	61215.929688
1210.893555	61527.539062
1209.785156	61830.011719
1208.677734	61735.312500
1207.569336	61870.718750
1206.459961	61304.710938
1205.351562	61994.812500
1204.242188	61787.425781
1203.133789	61728.871094
1202.024414	61746.957031
1200.915039	61044.031250
1199.804688	61783.097656
1198.694336	61461.058594
1197.584961	61630.046875
1196.474609	61769.699219
1195.363281	61618.910156
1194.252930	61790.019531
1193.141602	61538.011719
1192.030273	61594.328125
1190.918945	61729.347656
1189.807617	61468.488281
1188.696289	61835.085938
1187.583984	61300.011719
1186.471680	61641.773438
1185.359375	61697.992188
1184.247070	61614.875000
1183.133789	61486.847656
1182.021484	61644.132812
1180.908203	61866.488281
1179.793945	61372.484375
1178.680664	61992.156250
1177.567383	61478.105469
1176.453125	61350.230469
1175.338867	61664.414062
1174.224609	61794.527344
1173.109375	61444.605469
1171.995117	61464.824219
1170.879883	61482.792969
1169.764648	61615.074219
1168.649414	61312.496094
1167.533203	61153.445312
1166.417969	61108.710938
1165.301758	61245.433594
1164.185547	61332.835938
1163.069336	61202.992188
1161.952148	61688.875000
1160.835938	60990.449219
1159.718750	61071.109375
1158.601562	61158.445312
1157.483398	61592.515625
1156.366211	61440.386719
1155.248047	60581.605469
1154.129883	61174.292969
1153.011719	61225.750000
1151.893555	61029.082031
1150.774414	61015.734375
1149.655273	60714.156250
1148.537109	60881.812500
1147.416992	60991.335938
1146.297852	60902.066406
1145.177734	60506.945312
1144.058594	61357.597656
1142.938477	60690.238281
1141.817383	60757.281250
1140.697266	60717.207031
1139.576172	60556.687500
1138.456055	60634.863281
1137.334961	60695.171875
1136.212891	60331.851562
1135.091797	60882.582031
1133.969727	60655.304688
1132.847656	60557.347656
1131.725586	60806.968750
1130.603516	61027.535156
1129.480469	60459.652344
1128.358398	60517.652344
1127.235352	59878.824219
1126.112305	60001.453125
1124.988281	60235.308594
1123.865234	60707.152344
1122.741211	60266.730469
1121.617188	60435.898438
1120.493164	60093.531250
1119.368164	60058.113281
1118.244141	60327.253906
1117.119141	60547.394531
1115.994141	59880.808594
1114.869141	60300.906250
1113.743164	60067.769531
1112.618164	59572.640625
1111.492188	60125.789062
1110.366211	60134.796875
1109.239258	60134.921875
1108.113281	60516.765625
1106.986328	59862.230469
1105.859375	59877.925781
1104.732422	59895.832031
1103.605469	59663.125000
1102.477539	60293.035156
1101.349609	60186.699219
1100.221680	60093.703125
1099.093750	59861.117188
1097.965820	60060.679688
1096.836914	59899.070312
1095.708008	59666.644531
1094.579102	60424.167969
1093.450195	59879.539062
1092.321289	59724.714844
1091.191406	59899.718750
1090.061523	60054.738281
1088.931641	59877.832031
1087.801758	60017.312500
1086.670898	60037.308594
1085.541016	59515.542969
1084.410156	59867.242188
1083.278320	60123.765625
1082.147461	59969.125000
1081.016602	59843.261719
1079.884766	60152.660156
1078.752930	59953.917969
1077.621094	59876.703125
1076.488281	60029.148438
1075.356445	60121.933594
1074.223633	60062.382812
1073.090820	59901.335938
1071.957031	59885.968750
1070.824219	59963.257812
1069.690430	59963.320312
1068.556641	60164.050781
1067.422852	60137.613281
1066.289062	60322.800781
1065.154297	59833.503906
1064.020508	59954.773438
1062.885742	60287.500000
1061.750000	60128.882812
1060.615234	59507.828125
1059.479492	59913.109375
1058.344727	60120.097656
1057.208984	59893.382812
1056.072266	59818.601562
1054.936523	60538.167969
1053.799805	59805.503906
1052.663086	60056.304688
1051.526367	59664.859375
1050.389648	59977.152344
1049.251953	59733.144531
1048.115234	59944.199219
1046.977539	60007.941406
1045.839844	59937.628906
1044.701172	59865.144531
1043.563477	59915.679688
1042.424805	59955.210938
1041.286133	60089.136719
1040.147461	59880.570312
1039.007812	59685.242188
1037.869141	59854.242188
1036.729492	59731.386719
1035.589844	59595.414062
1034.449219	59944.164062
1033.309570	59606.468750
1032.168945	59253.546875
1031.028320	59731.480469
1029.887695	59841.066406
1028.747070	59398.453125
1027.605469	59427.000000
1026.463867	59851.976562
1025.322266	59521.277344
1024.180664	59385.566406
1023.039062	59381.246094
1021.896484	59685.531250
1020.753906	59770.871094
1019.611328	59462.359375
1018.468750	59569.578125
1017.325195	59563.027344
1016.181641	59493.062500
1015.039062	59469.035156
1013.894531	59477.800781
1012.750977	59659.210938
1011.606445	59462.535156
1010.462891	59698.496094
1009.318359	59145.843750
1008.172852	59482.226562
1007.028320	59665.640625
1005.882812	59604.484375
1004.737305	59226.855469
1003.591797	59473.496094
1002.446289	59416.757812
1001.299805	59700.351562
1000.154297	59124.496094
999.007812	58793.085938
997.861328	59152.937500
996.713867	59608.570312
995.567383	59667.371094
994.419922	59421.074219
993.272461	59031.074219
992.125000	59340.441406
990.976562	59529.906250
989.828125	59225.015625
988.680664	59736.636719
987.531250	59697.367188
986.382812	59131.449219
985.234375	59614.511719
984.084961	59386.011719
982.935547	59607.835938
981.786133	59338.097656
980.635742	59466.347656
979.486328	58998.906250
978.335938	59346.687500
977.185547	59542.222656
976.034180	59407.437500
974.883789	59190.152344
973.732422	59476.820312
972.581055	59222.679688
971.429688	59441.929688
970.278320	59415.804688
969.125977	58801.542969
967.973633	59437.355469
966.821289	59487.171875
965.668945	59146.535156
964.516602	59196.378906
963.363281	59298.242188
962.209961	59454.265625
961.056641	59027.171875
959.903320	59636.101562
958.749023	59425.792969
957.595703	58706.484375
956.441406	59475.406250
955.286133	59011.875000
954.131836	59812.925781
952.976562	59433.921875
951.822266	59182.746094
950.666992	59656.570312
949.510742	59565.539062
948.355469	59104.652344
947.199219	59199.746094
946.042969	59113.167969
944.886719	59201.730469
943.730469	59627.457031
942.573242	59032.980469
941.416016	58522.984375
940.258789	59430.343750
939.101562	59339.484375
937.944336	59730.226562
936.786133	58782.164062
935.627930	59220.355469
934.469727	58952.605469
933.311523	59181.277344
932.152344	58855.375000
930.993164	58805.703125
929.833984	59588.550781
928.674805	59036.328125
927.515625	58967.238281
926.355469	58930.507812
925.195312	58846.371094
924.035156	59096.253906
922.875000	58660.953125
921.713867	59328.636719
920.553711	58738.394531
919.392578	58843.835938
918.231445	58439.031250
917.069336	59263.378906
915.908203	58766.105469
914.746094	58983.335938
913.583984	58897.167969
912.420898	58802.429688
911.258789	58589.449219
910.095703	58423.843750
908.932617	58492.601562
907.769531	59210.390625
906.606445	58327.054688
905.442383	58808.281250
904.278320	58574.039062
903.114258	58206.726562
901.950195	58284.023438
900.786133	58232.480469
899.621094	58301.152344
898.456055	58015.703125
897.291016	58496.343750
896.125977	58582.082031
894.959961	58847.953125
893.793945	58723.437500
892.627930	58686.867188
891.461914	58142.265625
890.295898	58352.285156
889.128906	58242.941406
887.961914	58260.039062
886.794922	58189.300781
885.627930	58570.480469
884.459961	58857.304688
883.291992	58246.984375
882.124023	58041.441406
880.956055	58283.253906
879.788086	58028.562500
878.619141	58060.628906
877.450195	58257.375000
876.281250	58293.656250
875.112305	58099.007812
873.942383	58530.781250
872.773438	58457.984375
871.603516	58239.898438
870.432617	58393.648438
869.262695	58485.390625
868.091797	58463.898438
866.920898	58352.730469
865.750000	58269.355469
864.579102	58429.347656
863.407227	58570.070312
862.236328	58219.972656
861.064453	58505.746094
859.892578	58373.347656
858.719727	58447.855469
857.546875	58366.683594
856.375000	58187.476562
855.202148	58266.234375
854.028320	58255.457031
852.855469	58451.347656
851.681641	58334.023438
850.507812	58617.148438
849.333984	58929.976562
848.159180	58561.394531
846.985352	58373.878906
845.810547	58673.804688
844.635742	58826.789062
843.459961	58313.820312
842.285156	58713.550781
841.109375	58772.863281
839.933594	58519.589844
838.757812	58451.355469
837.582031	58818.871094
836.405273	58865.359375
835.228516	58805.593750
834.051758	58520.667969
832.875000	59132.140625
831.697266	58874.859375
830.519531	58904.292969
829.341797	58602.570312
828.164062	59037.406250
826.986328	58831.250000
825.807617	59214.964844
824.628906	59248.539062
823.450195	59031.843750
822.271484	59199.019531
821.091797	59058.730469
819.912109	58636.585938
818.732422	58943.597656
817.552734	59172.101562
816.373047	59148.421875
815.192383	59107.808594
814.011719	58916.851562
812.831055	59227.750000
811.650391	59005.085938
810.468750	58774.035156
809.287109	59241.367188
808.105469	59061.128906
806.923828	59276.511719
805.742188	58753.714844
804.559570	58761.847656
803.376953	58769.976562
802.194336	59046.542969
801.011719	59477.273438
799.828125	59054.218750
798.644531	59134.101562
797.460938	58806.308594
796.277344	58911.542969
795.092773	59320.773438
793.909180	58849.574219
792.724609	59034.937500
791.540039	58950.125000
790.354492	59131.175781
789.169922	58645.585938
787.984375	58803.417969
786.798828	58440.363281
785.612305	58990.304688
784.426758	58800.187500
783.240234	59050.589844
782.053711	58957.453125
780.867188	58839.066406
779.679688	58786.011719
778.493164	58728.765625
777.305664	58599.949219
776.118164	58999.562500
774.930664	58822.328125
773.742188	59011.312500
772.553711	58806.789062
771.365234	58837.933594
770.176758	58751.289062
768.988281	58645.750000
767.798828	58306.882812
766.609375	58869.886719
765.419922	58623.566406
764.229492	58337.417969
763.040039	58456.824219
761.849609	58668.601562
760.659180	58684.996094
759.468750	58758.070312
758.277344	58682.070312
757.086914	59237.847656
755.895508	58593.101562
754.703125	58659.832031
753.511719	59022.312500
752.319336	58409.414062
751.127930	58379.679688
749.934570	58603.628906
748.742188	58777.187500
747.549805	58638.414062
746.356445	58725.984375
745.163086	58752.769531
743.969727	58431.843750
742.775391	58728.812500
741.582031	58763.949219
740.387695	58891.175781
739.193359	58698.128906
737.998047	58375.402344
736.803711	58879.226562
735.608398	58587.960938
734.413086	58656.527344
733.217773	58254.582031
732.021484	58513.433594
730.825195	58935.226562
729.628906	58514.632812
728.432617	58441.054688
727.236328	59286.703125
726.039062	58653.226562
724.841797	58817.722656
723.644531	58904.898438
722.447266	58605.847656
721.249023	58507.269531
720.051758	58834.425781
718.853516	58823.464844
717.654297	58695.691406
716.456055	58847.429688
715.256836	59320.234375
714.057617	58719.175781
712.858398	59193.906250
711.659180	58726.468750
710.458984	58886.382812
709.258789	58706.660156
708.058594	58593.656250
706.858398	58563.992188
705.657227	58755.035156
704.457031	58598.363281
703.255859	59236.812500
702.053711	58688.882812
700.852539	58794.449219
699.650391	58510.984375
698.448242	58880.671875
697.246094	58690.859375
696.043945	58825.445312
694.840820	59103.398438
693.638672	59050.808594
692.434570	59021.089844
691.231445	59298.843750
690.028320	58930.527344
688.824219	58753.394531
687.620117	58565.945312
686.416016	58974.351562
685.210938	59303.726562
684.006836	59097.597656
682.801758	58725.562500
681.596680	58944.851562
680.390625	59284.347656
679.185547	59213.148438
677.979492	59160.628906
676.773438	59356.863281
675.567383	58877.414062
674.360352	58864.343750
673.153320	58919.644531
671.946289	59103.339844
670.739258	59239.332031
669.532227	59199.281250
668.324219	59103.347656
667.116211	59133.703125
665.908203	59037.812500
664.700195	59155.054688
663.491211	59216.402344
662.282227	58907.519531
661.073242	59287.324219
659.864258	59303.121094
658.655273	59068.800781
657.445312	59361.550781
656.235352	58935.144531
655.025391	59229.871094
653.814453	58880.062500
652.604492	59061.109375
651.393555	58750.687500
650.182617	59365.183594
648.970703	58990.835938
647.759766	58926.152344
646.547852	58708.816406
645.335938	58590.574219
644.123047	59091.082031
642.911133	59055.285156
641.698242	58955.589844
640.485352	59115.644531
639.272461	59257.085938
638.059570	59050.253906
636.845703	58930.023438
635.631836	58937.535156
634.417969	59002.699219
633.203125	58771.351562
631.989258	59036.195312
630.774414	58697.902344
629.559570	58925.613281
628.344727	59033.910156
627.128906	58786.304688
625.913086	58668.359375
624.697266	58717.003906
623.481445	59133.621094
622.264648	59215.042969
621.048828	58868.980469
619.832031	58504.550781
618.615234	58623.015625
617.397461	59242.582031
616.180664	58974.792969
614.962891	59146.476562
613.745117	58704.320312
612.526367	58736.421875
611.308594	58844.429688
610.089844	58572.851562
608.871094	58937.246094
607.652344	58719.070312
606.432617	59001.277344
605.212891	58293.203125
603.993164	59022.207031
602.773438	58572.593750
601.553711	58955.003906
600.333008	58597.753906
599.112305	58582.671875
597.891602	58762.125000
596.669922	58712.207031
595.449219	58840.394531
594.227539	58700.421875
593.005859	59092.519531
591.784180	59009.832031
590.561523	58892.398438
589.338867	58740.242188
588.116211	58958.230469
586.893555	58918.546875
585.669922	58776.683594
584.447266	58679.828125
583.223633	58617.738281
581.999023	58531.156250
580.775391	58881.671875
579.550781	58958.425781
578.326172	58873.863281
577.101562	58952.628906
575.876953	58972.171875
574.651367	58734.613281
573.425781	59037.757812
572.200195	58951.203125
570.974609	58978.882812
569.748047	58865.863281
568.522461	58954.695312
567.295898	58611.402344
566.068359	59026.292969
564.841797	58705.519531
563.614258	58857.457031
562.386719	58738.457031
561.159180	59427.894531
559.930664	58983.089844
558.703125	59142.988281
557.474609	58905.976562
556.246094	59147.214844
555.016602	58660.066406
553.788086	59053.796875
552.558594	58863.746094
551.329102	58901.476562
550.098633	58538.730469
548.869141	58560.246094
547.638672	58171.277344
546.408203	59027.859375
545.177734	58738.476562
543.946289	58814.757812
542.714844	58391.503906
541.483398	58516.542969
540.251953	58063.054688
539.020508	57989.222656
537.788086	58215.707031
536.555664	57979.582031
535.323242	58431.109375
534.089844	58158.523438
532.857422	57898.203125
531.624023	57694.738281
530.390625	57627.136719
529.156250	57504.843750
527.922852	57970.117188
526.688477	57645.246094
525.454102	57802.484375
524.218750	58030.531250
522.984375	57442.652344
521.749023	57626.144531
520.513672	57694.218750
519.278320	57768.332031
518.041992	58131.687500
516.805664	57582.757812
515.569336	57683.128906
514.333008	57831.984375
513.096680	57635.128906
511.859375	57567.683594
510.622070	57544.718750
509.384766	57170.238281
508.146484	57611.914062
506.909180	57455.656250
505.670898	57608.378906
504.432617	57337.109375
503.193359	57629.054688
501.955078	57513.261719
500.715820	57720.320312
499.476562	57776.007812
498.236328	57486.800781
496.997070	58224.054688
495.756836	57852.207031
494.516602	57823.160156
493.276367	57741.722656
492.035156	57841.656250
490.793945	57427.847656
489.552734	57844.015625
488.311523	57972.054688
487.070312	57904.746094
485.828125	57708.628906
484.585938	57933.222656
483.343750	57841.804688
482.100586	57981.781250
480.857422	57695.269531
479.615234	57847.285156
478.371094	57683.554688
477.127930	57759.117188
475.883789	58184.378906
474.639648	57580.570312
473.395508	58047.894531
472.151367	57980.691406
470.906250	58152.515625
469.661133	57814.222656
468.416016	57787.246094
467.170898	58282.179688
465.924805	57984.183594
464.679688	58065.535156
463.433594	58184.972656
462.186523	57770.820312
460.940430	57499.207031
459.693359	57662.785156
458.446289	57605.789062
457.199219	57879.511719
455.951172	57758.367188
454.703125	57823.585938
453.455078	57616.355469
452.207031	57597.457031
450.958984	57700.710938
449.709961	57737.855469
448.460938	57434.707031
447.211914	57559.937500
445.961914	57210.910156
444.712891	57496.167969
443.462891	57763.316406
442.212891	57406.441406
440.961914	57723.484375
439.710938	57318.773438
438.460938	57669.679688
437.208984	57680.757812
435.958008	57635.886719
434.706055	57141.597656
433.455078	57476.289062
432.202148	57471.406250
430.950195	57159.089844
429.698242	57413.738281
428.445312	57161.414062
427.192383	56996.968750
425.938477	57018.101562
424.685547	57001.328125
423.431641	57293.640625
422.177734	56646.808594
420.923828	57150.367188
419.668945	57133.570312
418.414062	57162.605469
417.159180	57123.894531
415.904297	56794.394531
414.648438	57275.523438
413.393555	57372.195312
412.137695	56955.234375
410.880859	57304.695312
409.625000	56905.808594
408.368164	57503.832031
407.111328	57238.328125
405.854492	57305.050781
404.597656	57180.855469
403.339844	57629.261719
402.082031	57087.636719
400.824219	57384.851562
399.565430	57687.910156
398.307617	57253.847656
397.048828	57735.566406
395.790039	57591.578125
394.530273	57759.351562
393.271484	57545.929688
392.011719	57852.566406
390.750977	57684.843750
389.491211	57810.796875
388.230469	57791.902344
386.970703	57548.917969
385.708984	58037.664062
384.448242	57766.964844
383.186523	57976.015625
381.925781	58175.074219
380.664062	58195.742188
379.401367	58008.402344
378.139648	58060.777344
376.876953	57966.597656
375.614258	58541.613281
374.350586	58431.535156
373.087891	58661.890625
371.824219	58569.632812
370.560547	58956.148438
369.296875	59148.683594
368.032227	59311.480469
366.767578	60458.824219
365.502930	61216.308594
364.238281	62345.062500
362.972656	62902.316406
361.708008	65014.183594
360.441406	67247.710938
359.175781	69780.570312
357.910156	73216.789062
356.643555	77478.859375
355.376953	81739.304688
354.110352	86098.773438
352.842773	89170.187500
351.575195	91303.421875
350.307617	92447.734375
349.040039	95581.250000
347.772461	100010.820312
346.503906	106116.140625
345.235352	111742.203125
343.966797	112830.304688
342.697266	108563.484375
341.427734	99378.117188
340.158203	90448.312500
338.888672	82252.351562
337.619141	76140.218750
336.348633	72331.171875
335.078125	69239.828125
333.807617	66757.585938
332.536133	65240.125000
331.265625	63471.503906
329.994141	63335.562500
328.722656	62454.589844
327.450195	61939.539062
326.177734	61750.894531
324.905273	61434.605469
323.632812	61053.613281
322.360352	61041.996094
321.086914	61014.675781
319.813477	61083.558594
318.540039	60645.988281
317.266602	60946.488281
315.992188	60856.406250
314.717773	60338.679688
313.443359	60521.378906
312.167969	60370.625000
310.893555	60831.652344
309.618164	60716.175781
308.342773	60408.667969
307.066406	60740.089844
305.790039	60998.890625
304.514648	61143.976562
303.237305	61412.390625
301.960938	61420.273438
300.683594	62060.484375
299.406250	63062.550781
298.128906	63717.851562
296.851562	65134.007812
295.573242	66976.070312
294.294922	69732.742188
293.016602	71987.773438
291.738281	74754.171875
290.458984	75971.390625
289.179688	76549.070312
287.900391	75604.398438
286.620117	75609.523438
285.340820	74559.914062
284.060547	75346.359375
282.780273	74670.109375
281.499023	73808.671875
280.218750	72418.632812
278.937500	71261.335938
277.656250	70194.218750
276.374023	70254.953125
275.091797	70366.367188
273.810547	71507.265625
272.527344	72996.687500
271.245117	74448.492188
269.961914	77281.414062
268.678711	80886.750000
267.395508	85632.234375
266.112305	91674.968750
264.828125	101302.250000
263.543945	113797.515625
262.259766	131650.656250
260.975586	156919.562500
259.690430	194182.296875
258.405273	239226.015625
257.120117	288340.968750
255.833984	325679.781250
254.548828	335842.593750
253.262695	310752.500000
251.976562	265074.281250
250.689453	216049.843750
249.403320	177958.796875
248.116211	148825.234375
246.828125	127900.234375
245.541016	113456.820312
244.252930	102158.023438
242.964844	93293.609375
241.676758	86846.648438
240.388672	81054.062500
239.099609	77063.851562
237.810547	73701.609375
236.521484	71042.601562
235.231445	68650.210938
233.942383	66477.765625
232.652344	65197.617188
231.362305	63611.812500
230.071289	62371.441406
228.780273	60864.250000
227.489258	59888.234375
226.198242	59299.816406
224.907227	58231.554688
223.615234	57730.765625
222.323242	56959.261719
221.031250	56553.699219
219.738281	55983.875000
218.445312	55352.378906
217.152344	55107.832031
215.859375	54308.554688
214.566406	54446.992188
213.272461	54096.464844
211.978516	53975.988281
210.684570	53558.070312
209.389648	53503.402344
208.094727	53116.625000
206.799805	52979.039062
205.504883	53129.105469
204.209961	52379.808594
202.914062	52454.675781
201.618164	52226.644531
200.321289	52083.562500
199.025391	51566.429688
197.728516	52088.683594
196.431641	51359.703125
195.134766	51122.449219
193.836914	51551.988281
192.539062	51270.472656
191.241211	50852.308594
189.943359	51142.988281
188.644531	51360.390625
187.345703	50911.640625
186.046875	50861.464844
184.748047	51149.988281
183.448242	50634.187500
182.149414	51032.281250
180.848633	50589.781250
179.548828	50441.640625
178.248047	50649.207031
176.948242	50656.796875
175.646484	50401.105469
174.345703	50316.507812
173.043945	50931.183594
171.743164	51163.414062
170.440430	51161.285156
169.138672	50798.214844
167.835938	51149.339844
166.533203	50700.042969
165.230469	50657.699219
163.927734	50974.113281
162.624023	50630.593750
161.320312	50471.300781
160.016602	50348.496094
158.711914	49999.535156
157.408203	50285.093750
156.103516	49988.011719
154.798828	50070.378906
153.493164	49928.601562
152.187500	50035.835938
150.881836	50043.464844
149.576172	49892.195312
148.269531	49978.316406
146.963867	49760.132812
145.657227	49949.558594
144.349609	49668.335938
143.042969	49526.832031
141.735352	49387.292969
140.427734	49408.394531
139.120117	49590.046875
137.811523	49202.132812
136.502930	49164.019531
135.194336	48864.203125
133.885742	48940.765625
132.576172	48860.707031
131.266602	48354.917969
129.957031	48011.574219
128.647461	47582.480469
127.336914	47304.289062
126.026367	46179.160156
124.715820	46189.355469
123.405273	45701.812500
122.093750	45040.949219
120.782227	44788.285156
119.470703	43950.597656
