#Wave		#Intensity
2199.095703	25528.511719
2197.998047	24893.373047
2196.898438	24818.636719
2195.800781	24662.000000
2194.701172	24892.222656
2193.603516	24703.775391
2192.503906	24747.396484
2191.404297	24770.535156
2190.304688	24457.140625
2189.205078	24969.105469
2188.105469	24726.244141
2187.005859	24726.640625
2185.904297	24677.044922
2184.804688	24588.843750
2183.705078	24666.492188
2182.603516	24541.982422
2181.501953	24901.185547
2180.400391	24851.597656
2179.300781	24584.105469
2178.199219	24514.160156
2177.097656	24394.314453
2175.994141	24657.945312
2174.892578	24821.671875
2173.791016	24674.615234
2172.687500	24570.693359
2171.585938	24328.498047
2170.482422	24555.642578
2169.378906	24413.257812
2168.277344	24662.972656
2167.173828	24409.591797
2166.070312	24521.029297
2164.966797	24648.285156
2163.861328	24648.675781
2162.757812	24517.734375
2161.654297	24447.964844
2160.548828	24543.453125
2159.445312	24263.226562
2158.339844	24433.384766
2157.234375	24352.359375
2156.128906	24341.482422
2155.023438	24445.951172
2153.917969	24410.187500
2152.812500	24250.085938
2151.707031	24542.136719
2150.601562	24551.574219
2149.494141	24129.398438
2148.388672	24166.011719
2147.281250	24396.884766
2146.173828	24056.253906
2145.066406	24345.779297
2143.958984	24203.960938
2142.851562	24355.658203
2141.744141	24094.257812
2140.636719	24406.144531
2139.529297	24034.263672
2138.419922	24379.894531
2137.312500	23960.773438
2136.203125	24103.332031
2135.095703	24245.843750
2133.986328	23928.402344
2132.876953	24028.066406
2131.767578	24129.949219
2130.658203	23965.908203
2129.548828	24038.478516
2128.439453	24329.517578
2127.328125	24386.234375
2126.218750	24267.292969
2125.107422	24245.201172
2123.998047	24025.027344
2122.886719	24050.246094
2121.775391	23992.195312
2120.664062	23967.910156
2119.552734	23984.125000
2118.441406	24117.287109
2117.330078	23973.808594
2116.218750	24028.234375
2115.105469	24107.367188
2113.994141	24074.093750
2112.880859	24182.404297
2111.767578	23866.023438
2110.656250	24041.726562
2109.542969	23990.513672
2108.429688	24017.917969
2107.316406	24020.611328
2106.201172	23982.896484
2105.087891	23812.761719
2103.974609	23635.951172
2102.859375	24148.052734
2101.746094	23731.195312
2100.630859	23969.453125
2099.515625	24091.009766
2098.402344	24033.138672
2097.287109	24053.753906
2096.171875	23771.751953
2095.056641	23882.050781
2093.939453	24160.373047
2092.824219	24109.255859
2091.708984	23690.789062
2090.591797	23588.253906
2089.474609	23857.476562
2088.359375	23801.964844
2087.242188	23952.417969
2086.125000	23943.908203
2085.007812	23713.859375
2083.890625	23508.498047
2082.773438	23674.554688
2081.656250	23565.445312
2080.537109	23458.607422
2079.419922	23439.005859
2078.300781	23625.078125
2077.181641	23797.675781
2076.064453	23704.275391
2074.945312	23635.486328
2073.826172	23475.123047
2072.707031	23707.935547
2071.587891	23628.009766
2070.466797	23867.414062
2069.347656	23742.837891
2068.228516	23555.800781
2067.107422	23446.939453
2065.986328	23797.779297
2064.867188	23461.349609
2063.746094	23519.853516
2062.625000	23348.621094
2061.503906	23333.537109
2060.382812	23545.867188
2059.261719	23499.544922
2058.138672	23399.748047
2057.017578	23627.554688
2055.894531	23300.511719
2054.773438	23182.974609
2053.650391	23635.654297
2052.527344	23306.544922
2051.404297	23351.599609
2050.281250	23334.306641
2049.158203	23185.699219
2048.035156	23399.876953
2046.912109	23293.582031
2045.787109	23300.777344
2044.664062	23356.902344
2043.539062	23250.666016
2042.416016	23155.582031
2041.291016	23327.302734
2040.166016	23205.564453
2039.041016	23343.882812
2037.916016	23144.408203
2036.791016	23327.123047
2035.666016	23398.710938
2034.539062	23130.478516
2033.414062	23077.726562
2032.287109	23184.839844
2031.162109	23220.884766
2030.035156	22884.058594
2028.908203	23155.355469
2027.781250	23129.261719
2026.654297	23369.369141
2025.527344	23103.714844
2024.400391	22946.808594
2023.273438	23075.964844
2022.144531	23171.824219
2021.017578	23132.453125
2019.888672	23190.597656
2018.759766	23027.156250
2017.630859	22914.722656
2016.503906	22873.201172
2015.375000	23110.724609
2014.244141	22993.902344
2013.115234	22885.972656
2011.986328	22957.365234
2010.857422	22946.851562
2009.726562	22874.384766
2008.597656	23085.113281
2007.466797	22764.914062
2006.335938	23311.742188
2005.205078	23064.578125
2004.074219	22881.609375
2002.943359	22787.119141
2001.812500	22858.412109
2000.681641	22657.892578
1999.548828	22662.904297
1998.417969	22793.820312
1997.285156	22547.031250
1996.154297	22713.251953
1995.021484	22680.712891
1993.888672	22864.513672
1992.755859	22781.197266
1991.623047	22861.203125
1990.490234	22766.882812
1989.357422	22493.912109
1988.222656	22576.128906
1987.089844	22501.750000
1985.955078	22522.201172
1984.822266	22661.683594
1983.687500	22466.099609
1982.552734	22451.285156
1981.417969	22573.082031
1980.283203	22586.890625
1979.148438	22316.560547
1978.013672	22513.189453
1976.876953	22509.384766
1975.742188	22331.664062
1974.605469	22114.384766
1973.470703	22178.869141
1972.333984	22186.121094
1971.197266	22380.369141
1970.060547	22176.421875
1968.923828	22247.447266
1967.787109	22096.361328
1966.650391	22338.857422
1965.513672	22157.031250
1964.375000	22225.810547
1963.238281	21754.011719
1962.099609	22000.792969
1960.960938	22027.824219
1959.822266	22122.931641
1958.685547	21491.166016
1957.546875	21836.617188
1956.406250	22164.392578
1955.267578	21838.011719
1954.128906	22123.978516
1952.990234	21766.998047
1951.849609	21897.128906
1950.708984	21788.146484
1949.570312	21869.984375
1948.429688	21945.216797
1947.289062	21643.367188
1946.148438	21771.214844
1945.007812	21903.398438
1943.867188	21871.208984
1942.726562	21595.863281
1941.583984	21541.830078
1940.443359	21457.156250
1939.300781	21760.066406
1938.158203	21360.136719
1937.017578	21522.875000
1935.875000	21260.992188
1934.732422	21362.421875
1933.589844	21380.683594
1932.445312	21431.748047
1931.302734	21222.542969
1930.160156	21468.226562
1929.015625	21429.611328
1927.873047	21465.328125
1926.728516	21308.708984
1925.583984	21558.578125
1924.439453	21388.884766
1923.294922	21249.830078
1922.150391	21078.062500
1921.005859	21107.248047
1919.861328	21426.800781
1918.716797	21434.085938
1917.570312	21238.390625
1916.425781	21079.859375
1915.279297	21135.199219
1914.132812	21142.525391
1912.986328	20977.544922
1911.839844	21069.943359
1910.693359	21203.734375
1909.546875	20960.345703
1908.400391	21026.542969
1907.251953	21060.027344
1906.105469	20973.662109
1904.957031	21183.599609
1903.810547	20899.033203
1902.662109	21132.867188
1901.513672	20889.775391
1900.365234	21123.529297
1899.216797	20749.919922
1898.068359	21085.902344
1896.919922	20786.406250
1895.769531	20808.988281
1894.621094	20664.076172
1893.470703	20751.914062
1892.322266	20644.025391
1891.171875	20899.238281
1890.021484	20932.648438
1888.871094	20661.781250
1887.720703	20710.429688
1886.570312	20804.683594
1885.419922	20805.501953
1884.267578	20765.052734
1883.117188	20622.556641
1881.964844	20760.181641
1880.812500	20800.076172
1879.662109	20809.570312
1878.509766	20634.611328
1877.357422	20370.753906
1876.205078	20516.980469
1875.052734	20775.937500
1873.898438	20746.390625
1872.746094	20627.958984
1871.593750	20440.197266
1870.439453	20729.332031
1869.285156	20593.625000
1868.132812	20605.298828
1866.978516	20729.615234
1865.824219	20671.949219
1864.669922	20661.945312
1863.515625	20461.404297
1862.359375	20460.095703
1861.205078	20525.888672
1860.048828	20656.582031
1858.894531	20555.707031
1857.738281	20515.439453
1856.582031	20689.326172
1855.427734	20746.369141
1854.271484	20206.599609
1853.115234	20577.183594
1851.957031	20448.320312
1850.800781	20663.128906
1849.644531	20372.230469
1848.486328	20554.572266
1847.330078	20529.480469
1846.171875	20558.392578
1845.013672	20647.753906
1843.855469	20434.826172
1842.697266	20597.570312
1841.539062	20432.203125
1840.380859	20497.785156
1839.222656	20436.050781
1838.064453	20538.281250
1836.904297	20681.455078
1835.746094	20697.349609
1834.585938	20318.679688
1833.425781	20442.416016
1832.265625	20348.419922
1831.105469	20635.880859
1829.945312	20300.568359
1828.785156	20370.363281
1827.625000	20388.441406
1826.462891	20574.484375
1825.302734	20521.466797
1824.140625	20397.425781
1822.980469	20277.730469
1821.818359	20461.511719
1820.656250	20608.650391
1819.494141	20299.664062
1818.332031	20283.308594
1817.169922	20456.207031
1816.005859	20308.667969
1814.843750	20462.154297
1813.679688	20198.589844
1812.517578	20360.636719
1811.353516	20430.234375
1810.189453	20474.025391
1809.025391	20178.414062
1807.861328	20273.775391
1806.697266	20137.197266
1805.533203	20320.554688
1804.369141	20287.048828
1803.203125	20189.166016
1802.039062	20406.753906
1800.873047	20356.082031
1799.708984	20026.566406
1798.542969	20319.132812
1797.376953	20268.501953
1796.210938	20020.638672
1795.044922	20190.867188
1793.876953	20090.986328
1792.710938	20370.431641
1791.544922	20069.154297
1790.376953	20155.710938
1789.210938	20096.595703
1788.042969	20339.441406
1786.875000	20117.591797
1785.707031	19846.580078
1784.539062	20082.921875
1783.371094	20135.144531
1782.203125	19960.546875
1781.033203	20083.367188
1779.865234	20028.615234
1778.695312	19663.794922
1777.527344	19867.851562
1776.357422	19930.742188
1775.187500	20076.970703
1774.017578	20020.125000
1772.847656	20129.962891
1771.677734	19829.583984
1770.507812	19830.480469
1769.335938	20136.769531
1768.166016	19808.783203
1766.994141	19745.632812
1765.824219	19652.621094
1764.652344	19495.613281
1763.480469	19840.103516
1762.308594	19813.257812
1761.136719	19910.138672
1759.964844	19789.449219
1758.792969	19877.769531
1757.619141	19612.150391
1756.447266	19915.763672
1755.273438	19660.882812
1754.099609	19521.156250
1752.927734	19477.349609
1751.753906	19601.841797
1750.580078	19517.570312
1749.406250	19984.853516
1748.230469	19364.013672
1747.056641	19535.269531
1745.882812	19778.830078
1744.707031	19509.460938
1743.533203	19686.986328
1742.357422	19385.812500
1741.181641	19573.931641
1740.005859	19453.634766
1738.830078	19656.558594
1737.654297	19487.394531
1736.478516	19496.826172
1735.302734	19395.748047
1734.125000	19515.677734
1732.949219	19423.126953
1731.771484	19424.064453
1730.593750	19323.064453
1729.416016	19160.523438
1728.238281	19220.945312
1727.060547	19160.359375
1725.882812	19331.111328
1724.705078	19416.933594
1723.527344	19080.550781
1722.347656	19210.925781
1721.169922	19311.566406
1719.990234	19371.884766
1718.810547	19442.783203
1717.630859	19339.841797
1716.451172	19205.146484
1715.271484	19155.253906
1714.091797	19109.615234
1712.912109	19133.892578
1711.730469	18959.082031
1710.550781	19267.119141
1709.369141	19253.246094
1708.189453	19332.515625
1707.007812	18994.824219
1705.826172	19137.589844
1704.644531	18937.564453
1703.462891	19143.751953
1702.281250	18878.228516
1701.097656	18980.736328
1699.916016	19085.324219
1698.732422	19115.888672
1697.550781	19002.722656
1696.367188	19084.005859
1695.183594	18951.867188
1694.000000	18897.933594
1692.816406	19097.466797
1691.632812	18927.380859
1690.449219	19181.736328
1689.265625	18956.806641
1688.080078	19120.310547
1686.896484	18838.488281
1685.710938	18934.437500
1684.525391	18834.164062
1683.339844	19153.656250
1682.154297	19076.576172
1680.968750	18630.537109
1679.783203	19055.302734
1678.597656	18919.259766
1677.410156	18918.136719
1676.224609	18847.478516
1675.037109	18972.767578
1673.851562	18811.552734
1672.664062	18877.835938
1671.476562	18546.136719
1670.289062	18791.386719
1669.101562	18813.433594
1667.914062	18736.560547
1666.724609	18663.921875
1665.537109	18734.367188
1664.347656	18644.923828
1663.160156	18782.644531
1661.970703	18533.416016
1660.781250	18721.562500
1659.591797	18531.285156
1658.402344	18441.951172
1657.212891	18457.708984
1656.023438	18591.115234
1654.832031	18732.876953
1653.642578	18324.333984
1652.451172	18671.875000
1651.261719	18313.869141
1650.070312	18476.570312
1648.878906	18517.484375
1647.687500	18495.433594
1646.496094	18649.625000
1645.304688	18241.580078
1644.111328	18097.939453
1642.919922	18327.607422
1641.728516	18464.947266
1640.535156	18289.896484
1639.341797	18347.548828
1638.148438	18507.863281
1636.955078	18223.941406
1635.761719	18285.763672
1634.568359	18502.556641
1633.375000	18135.015625
1632.181641	18201.005859
1630.986328	18250.226562
1629.792969	18443.849609
1628.597656	18153.998047
1627.402344	18213.660156
1626.207031	18103.853516
1625.011719	17937.611328
1623.816406	18193.855469
1622.621094	18096.652344
1621.425781	18231.529297
1620.230469	17967.136719
1619.033203	18196.031250
1617.835938	17977.703125
1616.640625	18250.386719
1615.443359	17988.257812
1614.246094	17880.759766
1613.048828	17804.617188
1611.851562	17983.197266
1610.654297	17641.972656
1609.455078	17841.386719
1608.257812	17953.095703
1607.058594	18066.849609
1605.861328	17971.976562
1604.662109	17862.537109
1603.462891	17869.904297
1602.263672	17643.769531
1601.064453	17580.298828
1599.865234	17683.576172
1598.666016	17718.054688
1597.464844	17975.441406
1596.265625	17766.142578
1595.064453	17756.851562
1593.863281	17645.529297
1592.664062	17759.095703
1591.462891	17701.931641
1590.261719	17782.148438
1589.060547	17712.511719
1587.857422	17634.578125
1586.656250	17714.763672
1585.455078	17537.023438
1584.251953	17596.400391
1583.048828	17620.414062
1581.847656	17644.417969
1580.644531	17543.708984
1579.441406	17686.164062
1578.238281	17627.035156
1577.035156	17565.847656
1575.830078	17475.605469
1574.626953	17694.806641
1573.421875	17471.689453
1572.218750	17661.751953
1571.013672	17652.498047
1569.808594	17358.943359
1568.603516	17426.511719
1567.398438	17531.396484
1566.193359	17327.199219
1564.988281	17409.253906
1563.783203	17476.763672
1562.576172	17471.693359
1561.371094	17253.134766
1560.164062	17293.695312
1558.957031	17230.640625
1557.750000	17285.691406
1556.542969	17421.500000
1555.335938	17273.546875
1554.128906	17450.722656
1552.921875	17524.326172
1551.712891	17210.841797
1550.505859	17280.320312
1549.296875	17142.861328
1548.089844	17115.093750
1546.880859	17234.195312
1545.671875	17365.662109
1544.462891	17180.722656
1543.253906	17105.416016
1542.042969	17061.138672
1540.833984	17256.609375
1539.623047	17303.238281
1538.414062	17029.628906
1537.203125	17235.330078
1535.992188	17098.130859
1534.783203	17293.423828
1533.572266	17096.388672
1532.359375	16977.859375
1531.148438	17189.582031
1529.937500	17075.203125
1528.726562	17101.154297
1527.513672	17075.527344
1526.300781	17033.410156
1525.089844	17022.236328
1523.876953	16753.353516
1522.664062	17119.455078
1521.451172	16830.037109
1520.238281	16835.388672
1519.023438	16855.160156
1517.810547	16879.042969
1516.595703	16956.466797
1515.382812	17056.515625
1514.167969	17010.347656
1512.953125	16877.738281
1511.738281	16864.548828
1510.523438	16902.806641
1509.308594	16677.697266
1508.093750	16757.115234
1506.878906	16602.035156
1505.662109	16831.554688
1504.447266	16777.259766
1503.230469	16766.154297
1502.013672	16833.154297
1500.796875	16628.873047
1499.580078	16628.068359
1498.363281	16481.410156
1497.146484	16673.699219
1495.929688	16570.207031
1494.710938	16526.294922
1493.494141	16642.519531
1492.275391	16495.982422
1491.058594	16560.865234
1489.839844	16486.205078
1488.621094	16466.958984
1487.402344	16433.359375
1486.181641	16453.091797
1484.962891	16503.572266
1483.744141	16402.332031
1482.523438	16532.738281
1481.304688	16517.599609
1480.083984	16510.660156
1478.863281	16255.838867
1477.642578	16636.068359
1476.421875	16438.654297
1475.201172	16310.923828
1473.980469	16410.478516
1472.759766	16460.873047
1471.537109	16296.365234
1470.316406	16334.484375
1469.093750	16123.000977
1467.871094	16375.908203
1466.648438	16115.406250
1465.425781	16319.152344
1464.203125	16236.611328
1462.980469	16223.596680
1461.757812	16161.537109
1460.533203	16332.438477
1459.310547	16249.950195
1458.085938	16277.791992
1456.861328	16344.426758
1455.636719	16188.467773
1454.412109	16412.296875
1453.187500	16146.150391
1451.962891	16157.656250
1450.738281	16383.413086
1449.513672	16072.524414
1448.287109	16106.473633
1447.060547	16032.317383
1445.835938	16064.220703
1444.609375	16277.563477
1443.382812	16201.376953
1442.156250	16249.537109
1440.929688	16120.399414
1439.701172	16115.584961
1438.474609	15962.069336
1437.248047	16169.095703
1436.019531	16082.820312
1434.791016	16086.157227
1433.564453	16067.099609
1432.335938	16212.905273
1431.107422	16031.039062
1429.876953	16233.766602
1428.648438	16216.729492
1427.419922	16024.785156
1426.189453	15987.453125
1424.960938	16118.885742
1423.730469	16142.533203
1422.500000	16001.543945
1421.271484	16053.651367
1420.041016	16091.519531
1418.808594	16342.670898
1417.578125	15884.895508
1416.347656	15884.187500
1415.115234	16098.696289
1413.884766	16140.580078
1412.652344	16340.762695
1411.421875	16153.277344
1410.189453	15937.451172
1408.957031	16001.646484
1407.724609	15982.660156
1406.490234	16056.963867
1405.257812	15896.043945
1404.025391	16154.811523
1402.791016	16214.857422
1401.558594	15798.652344
1400.324219	16164.687500
1399.089844	15898.542969
1397.855469	16021.377930
1396.621094	15874.831055
1395.386719	15914.611328
1394.150391	15944.254883
1392.916016	16006.273438
1391.681641	16092.554688
1390.445312	16067.519531
1389.208984	16034.401367
1387.972656	16043.769531
1386.736328	16077.401367
1385.500000	16145.395508
1384.263672	15958.640625
1383.027344	15751.737305
1381.791016	15866.231445
1380.552734	16077.671875
1379.316406	15767.822266
1378.078125	16060.000977
1376.839844	15841.138672
1375.601562	15929.265625
1374.363281	15720.594727
1373.125000	15925.782227
1371.886719	15955.322266
1370.646484	15835.535156
1369.408203	15766.224609
1368.167969	15733.245117
1366.929688	15940.267578
1365.689453	15586.662109
1364.449219	15793.637695
1363.208984	15776.798828
1361.968750	15842.594727
1360.728516	15799.557617
1359.486328	15591.333008
1358.246094	15544.325195
1357.003906	15640.322266
1355.761719	15669.836914
1354.521484	15445.670898
1353.279297	15634.226562
1352.037109	15691.901367
1350.794922	15576.505859
1349.550781	15451.089844
1348.308594	15367.958008
1347.066406	15479.937500
1345.822266	15422.969727
1344.578125	15647.486328
1343.335938	15425.676758
1342.091797	15334.580078
1340.847656	15388.192383
1339.603516	15453.839844
1338.357422	15230.207031
1337.113281	15197.447266
1335.869141	15417.710938
1334.623047	15194.198242
1333.376953	15422.415039
1332.132812	15335.453125
1330.886719	15445.172852
1329.640625	15139.549805
1328.394531	15379.651367
1327.148438	15060.104492
1325.900391	14983.304688
1324.654297	15301.498047
1323.406250	15126.458008
1322.160156	15035.655273
1320.912109	15139.257812
1319.664062	15258.853516
1318.416016	15063.907227
1317.167969	14933.119141
1315.919922	15034.664062
1314.669922	15024.052734
1313.421875	15005.438477
1312.171875	14980.825195
1310.923828	14852.162109
1309.673828	15027.658203
1308.423828	14983.047852
1307.173828	15028.456055
1305.923828	14973.861328
1304.673828	14757.335938
1303.421875	14818.749023
1302.171875	14976.077148
1300.921875	14629.771484
1299.669922	14916.945312
1298.417969	15022.234375
1297.166016	14951.724609
1295.914062	14945.140625
1294.662109	14744.888672
1293.410156	14658.492188
1292.158203	14815.625977
1290.904297	14753.192383
1289.652344	14760.612305
1288.398438	14803.936523
1287.144531	14593.941406
1285.890625	14762.912109
1284.636719	14549.007812
1283.382812	14602.304688
1282.128906	14665.547852
1280.875000	14619.164062
1279.619141	14803.920898
1278.365234	14889.008789
1277.109375	14647.416016
1275.853516	14531.366211
1274.599609	14821.535156
1273.343750	14673.642578
1272.087891	14687.022461
1270.830078	14666.565430
1269.574219	14829.166992
1268.318359	14739.064453
1267.060547	14680.817383
1265.802734	14733.954102
1264.546875	14429.175781
1263.289062	14651.313477
1262.031250	14589.144531
1260.773438	14554.817383
1259.513672	14562.227539
1258.255859	14583.541016
1256.998047	14747.856445
1255.738281	14548.693359
1254.480469	14699.057617
1253.220703	14601.217773
1251.960938	14493.486328
1250.701172	14731.099609
1249.441406	14605.524414
1248.181641	14660.521484
1246.919922	14776.986328
1245.660156	14578.090820
1244.398438	14506.163086
1243.138672	14648.365234
1241.876953	14378.238281
1240.615234	14615.536133
1239.353516	14670.460938
1238.091797	14671.875977
1236.830078	14489.083008
1235.566406	14417.253906
1234.304688	14577.115234
1233.041016	14538.949219
1231.779297	14619.558594
1230.515625	14494.321289
1229.251953	14697.585938
1227.988281	14536.767578
1226.724609	14670.724609
1225.460938	14428.881836
1224.195312	14495.582031
1222.931641	14374.446289
1221.666016	14522.172852
1220.400391	14569.056641
1219.136719	14542.815430
1217.871094	14591.654297
1216.605469	14553.565430
1215.339844	14582.634766
1214.072266	14554.432617
1212.806641	14593.362305
1211.541016	14452.656250
1210.273438	14501.456055
1209.005859	14642.978516
1207.738281	14504.308594
1206.470703	14454.447266
1205.203125	14412.492188
1203.935547	14484.916016
1202.667969	14610.543945
1201.400391	14326.133789
1200.130859	14382.767578
1198.863281	14616.719727
1197.593750	14369.886719
1196.324219	14477.694336
1195.054688	14355.043945
1193.785156	14324.980469
1192.515625	14314.615234
1191.246094	14402.671875
1189.974609	14524.154297
1188.705078	14315.019531
1187.433594	14190.553711
1186.162109	14402.491211
1184.890625	14401.952148
1183.621094	14218.544922
1182.347656	14363.521484
1181.076172	14193.942383
1179.804688	14283.842773
1178.533203	14151.669922
1177.259766	14544.097656
1175.986328	14394.246094
1174.714844	14089.294922
1173.441406	14273.384766
1172.167969	14102.061523
1170.894531	14083.904297
1169.621094	14073.603516
1168.345703	14261.490234
1167.072266	14202.113281
1165.796875	14309.488281
1164.523438	14218.743164
1163.248047	14200.581055
1161.972656	14200.070312
1160.697266	14385.775391
1159.421875	14197.085938
1158.146484	14075.084961
1156.869141	14045.206055
1155.593750	14219.054688
1154.316406	14122.571289
1153.041016	13994.791992
1151.763672	14148.978516
1150.486328	14105.408203
1149.208984	14001.181641
1147.931641	13990.916016
1146.652344	14125.428711
1145.375000	14085.802734
1144.097656	13964.048828
1142.818359	13762.165039
1141.539062	14051.072266
1140.259766	13968.480469
1138.980469	14155.622070
1137.701172	13996.832031
1136.421875	14154.597656
1135.142578	13866.939453
1133.863281	13829.369141
1132.582031	13813.290039
1131.300781	13900.690430
1130.021484	13747.963867
1128.740234	13679.210938
1127.458984	13821.224609
1126.177734	13754.432617
1124.896484	13722.775391
1123.613281	13747.687500
1122.332031	13873.988281
1121.048828	13744.844727
1119.767578	13611.845703
1118.484375	13773.183594
1117.201172	13710.375977
1115.917969	13782.018555
1114.634766	13855.584961
1113.351562	13648.671875
1112.066406	13509.984375
1110.783203	13702.318359
1109.498047	13592.868164
1108.214844	13279.100586
1106.929688	13724.337891
1105.644531	13529.334961
1104.359375	13425.824219
1103.074219	13627.693359
1101.789062	13570.868164
1100.501953	13407.132812
1099.216797	13503.929688
1097.929688	13410.228516
1096.642578	13460.354492
1095.357422	13848.514648
1094.070312	28098.177734
1092.783203	16543.277344
1091.494141	13573.294922
1090.207031	13351.538086
1088.919922	13355.031250
1087.630859	13346.877930
1086.341797	13369.773438
1085.054688	13355.798828
1083.765625	13231.260742
1082.476562	13217.314453
1081.187500	13226.640625
1079.898438	13218.515625
1078.607422	12873.105469
1077.318359	13140.251953
1076.027344	13134.081055
1074.738281	13166.661133
1073.447266	13017.143555
1072.156250	13094.276367
1070.865234	13175.253906
1069.574219	13006.451172
1068.281250	13000.308594
1066.990234	12941.911133
1065.699219	13127.349609
1064.406250	13045.732422
1063.113281	12975.750000
1061.820312	12946.407227
1060.529297	12982.818359
1059.234375	13090.750977
1057.941406	13009.209961
1056.648438	12947.022461
1055.355469	12859.737305
1054.060547	12865.217773
1052.765625	12681.391602
1051.472656	12789.260742
1050.177734	12817.920898
1048.882812	12985.578125
1047.587891	12873.280273
1046.291016	12928.928711
1044.996094	12697.041016
1043.701172	12806.720703
1042.404297	12773.617188
1041.107422	12728.954102
1039.812500	12663.093750
1038.515625	12722.574219
1037.218750	12631.678711
1035.921875	12685.360352
1034.623047	12725.534180
1033.326172	12860.097656
1032.027344	12628.622070
1030.730469	12626.413086
1029.431641	12818.689453
1028.132812	12818.371094
1026.833984	12777.630859
1025.535156	12681.089844
1024.236328	12746.219727
1022.937500	12584.304688
1021.636719	12709.058594
1020.337891	12633.750977
1019.037109	12694.996094
1017.736328	12460.143555
1016.435547	12667.485352
1015.134766	12580.705078
1013.833984	12628.462891
1012.533203	12726.156250
1011.232422	12443.479492
1009.929688	12535.407227
1008.628906	12562.015625
1007.326172	12536.778320
1006.023438	12615.203125
1004.720703	12492.084961
1003.417969	12658.756836
1002.115234	12810.022461
1000.812500	12719.541992
999.507812	12575.392578
998.205078	12690.159180
996.900391	12547.981445
995.595703	12518.948242
994.291016	12562.750977
992.986328	12564.382812
991.681641	12585.171875
990.376953	12425.895508
989.072266	12661.199219
987.765625	12454.093750
986.460938	12471.055664
985.154297	12463.127930
983.847656	12399.701172
982.541016	12441.539062
981.234375	12351.352539
979.927734	12492.649414
978.621094	12570.784180
977.312500	12505.479492
976.005859	12461.227539
974.697266	12325.239258
973.388672	12212.232422
972.080078	12317.096680
970.771484	12452.491211
969.462891	12352.890625
968.154297	12356.454102
966.845703	12337.101562
965.535156	12451.395508
964.226562	12338.500977
962.916016	12328.703125
961.605469	12290.286133
960.294922	12492.264648
958.984375	12188.694336
957.673828	12327.683594
956.363281	12205.393555
955.050781	12249.006836
953.740234	12401.253906
952.427734	12204.687500
951.115234	12215.883789
949.804688	12209.930664
948.492188	12021.118164
947.179688	12182.791992
945.865234	12074.023438
944.552734	12009.079102
943.238281	12081.206055
941.925781	12048.635742
940.611328	12078.868164
939.296875	12042.502930
937.982422	12076.529297
936.667969	12074.409180
935.353516	12072.289062
934.039062	11769.793945
932.724609	12071.851562
931.408203	11807.470703
930.091797	11921.303711
928.777344	11890.713867
927.460938	11835.440430
926.144531	12002.382812
924.828125	11806.599609
923.509766	11760.861328
922.193359	11887.867188
920.876953	11955.997070
919.558594	11876.101562
918.240234	11820.895508
916.921875	11729.669922
915.603516	11793.984375
914.285156	11771.055664
912.966797	11577.513672
911.648438	11632.341797
910.328125	11658.724609
909.009766	11793.099609
907.689453	11631.893555
906.371094	11737.813477
905.050781	11658.105469
903.730469	11635.228516
902.408203	11599.106445
901.087891	11672.778320
899.767578	11464.450195
898.445312	11668.674805
897.125000	11719.592773
895.802734	11473.535156
894.480469	11552.835938
893.158203	11558.367188
891.835938	11751.050781
890.513672	11588.324219
889.191406	11355.732422
887.867188	11523.786133
886.544922	11585.989258
885.220703	11587.728516
883.896484	11402.509766
882.572266	11534.560547
881.248047	11598.603516
879.923828	11328.543945
878.599609	11449.213867
877.273438	11409.462891
875.949219	11247.106445
874.623047	11324.344727
873.296875	11503.388672
871.970703	11350.526367
870.644531	11510.650391
869.318359	11235.327148
867.992188	11461.371094
866.666016	11335.000000
865.337891	11493.128906
864.011719	11451.552734
862.683594	11240.506836
861.355469	11396.684570
860.027344	11279.845703
858.699219	11409.610352
857.371094	11292.810547
856.042969	11409.355469
854.712891	11365.960938
853.384766	11559.565430
852.054688	11271.693359
850.724609	11406.959961
849.394531	11348.555664
848.064453	11461.206055
846.734375	11502.408203
845.404297	11286.194336
844.072266	11308.625977
842.742188	11445.619141
841.410156	11349.709961
840.080078	11188.121094
838.748047	11420.797852
837.416016	11146.640625
836.083984	11174.701172
834.750000	11380.989258
833.417969	11227.038086
832.085938	11168.792969
830.751953	11149.947266
829.417969	11369.216797
828.083984	11299.729492
826.750000	11265.875977
825.416016	11160.826172
824.082031	11052.065430
822.748047	11106.313477
821.412109	11310.373047
820.078125	11177.298828
818.742188	11220.261719
817.406250	11128.431641
816.070312	11062.835938
814.734375	11240.523438
813.398438	11317.118164
812.062500	11083.170898
810.726562	11191.559570
809.388672	11103.569336
808.050781	11210.046875
806.714844	10856.648438
805.376953	11097.693359
804.039062	10929.429688
802.701172	11076.962891
801.361328	10949.856445
800.023438	10921.777344
798.685547	10921.716797
797.345703	10953.394531
796.005859	10966.393555
794.666016	10917.800781
793.326172	10990.511719
791.986328	10857.977539
790.646484	10667.665039
789.306641	10915.688477
787.964844	10755.265625
786.625000	10594.900391
785.283203	10796.204102
783.941406	10766.342773
782.599609	10682.455078
781.257812	10680.568359
779.916016	10777.403320
778.574219	10701.005859
777.230469	10563.189453
775.888672	10498.026367
774.544922	10516.646484
773.201172	10557.591797
771.857422	10399.428711
770.513672	10538.978516
769.169922	10704.520508
767.826172	10356.722656
766.480469	10412.533203
765.136719	10455.310547
763.791016	10453.462891
762.445312	10447.898438
761.101562	10453.484375
759.755859	10373.611328
758.408203	10425.642578
757.062500	10384.800781
755.716797	10421.957031
754.369141	10429.396484
753.023438	10329.179688
751.675781	10370.036133
750.328125	10240.176758
748.980469	10344.107422
747.632812	10334.859375
746.285156	10266.271484
744.935547	10212.540039
743.587891	10240.394531
742.238281	10216.341797
740.890625	10242.332031
739.541016	10071.914062
738.191406	10190.543945
736.841797	10027.602539
735.492188	10129.531250
734.140625	10075.897461
732.791016	10053.751953
731.439453	9992.745117
730.087891	10015.034180
728.738281	9972.557617
727.386719	10005.939453
726.035156	9941.284180
724.681641	10131.843750
723.330078	9976.592773
721.978516	10091.286133
720.625000	10196.697266
719.273438	9926.945312
717.919922	9988.005859
716.566406	9847.693359
715.212891	9803.470703
713.859375	9929.150391
712.503906	9892.312500
711.150391	9750.269531
709.794922	10051.223633
708.441406	9936.880859
707.085938	9955.416016
705.730469	9894.624023
704.375000	9769.302734
703.019531	9760.196289
701.664062	9765.841797
700.306641	9762.268555
698.951172	9911.665039
697.593750	9804.875977
696.236328	9746.026367
694.878906	9749.825195
693.521484	9805.190430
692.164062	9796.086914
690.806641	9884.562500
689.449219	9798.137695
688.089844	9647.329102
686.730469	9770.743164
685.373047	9807.646484
684.013672	9794.871094
682.654297	9783.939453
681.294922	9703.137695
679.933594	9717.963867
678.574219	9780.574219
677.214844	9635.493164
675.853516	9718.307617
674.492188	9593.496094
673.130859	9652.409180
671.769531	9606.622070
670.408203	9709.579102
669.046875	9559.154297
667.685547	9684.108398
666.322266	9706.248047
664.960938	9616.453125
663.597656	9539.532227
662.234375	9565.352539
660.871094	9570.991211
659.507812	9470.281250
658.144531	9521.763672
656.779297	9378.941406
655.416016	9606.348633
654.050781	9434.244141
652.687500	9307.999023
651.322266	9366.790039
649.957031	9572.060547
648.591797	9552.052734
647.224609	9502.760742
645.859375	9451.655273
644.494141	9358.478516
643.126953	9492.210938
641.759766	9567.357422
640.394531	9446.773438
639.027344	9567.617188
637.658203	9390.396484
636.291016	9313.780273
634.923828	9368.784180
633.554688	9449.352539
632.187500	9389.208008
630.818359	9447.822266
629.449219	9245.240234
628.080078	9214.379883
626.710938	9402.621094
625.341797	9446.586914
623.972656	9424.832031
622.601562	9331.917969
621.232422	9335.733398
619.861328	9363.260742
618.490234	9206.573242
617.119141	9128.350586
615.748047	9113.965820
614.376953	9199.841797
613.005859	9305.734375
611.632812	9180.171875
610.261719	9149.390625
608.888672	9264.341797
607.515625	9133.388672
606.142578	9095.346680
604.769531	8986.316406
603.396484	9079.371094
602.023438	8895.764648
600.648438	9207.152344
599.273438	8972.648438
597.900391	8980.147461
596.525391	9056.750977
595.150391	8920.585938
593.775391	8948.086914
592.400391	8951.947266
591.023438	8866.757812
589.648438	8807.036133
588.271484	8769.135742
586.896484	8731.248047
585.519531	8836.840820
584.142578	8728.140625
582.765625	8670.310547
581.388672	8754.075195
580.009766	8845.069336
578.632812	8894.298828
577.253906	8760.286133
575.875000	8682.548828
574.498047	8606.651367
573.119141	8509.022461
571.740234	8652.532227
570.359375	8587.554688
568.980469	8799.861328
567.601562	8617.110352
566.220703	8608.330078
564.839844	8561.516602
563.458984	8453.150391
562.078125	8408.191406
560.697266	8544.271484
559.316406	8390.717773
557.935547	8523.131836
556.552734	8655.499023
555.171875	8315.685547
553.789062	8332.290039
552.406250	8236.774414
551.023438	8540.853516
549.640625	8467.026367
548.257812	8279.362305
546.875000	8339.325195
545.490234	8413.719727
544.105469	8240.616211
542.722656	8212.056641
541.337891	8405.610352
539.953125	8378.835938
538.568359	8288.893555
537.181641	8287.416016
535.796875	8230.000977
534.412109	8170.802734
533.025391	8225.262695
531.638672	8124.605957
530.251953	8200.692383
528.865234	8159.567383
527.478516	8314.929688
526.091797	8320.655273
524.705078	8191.239746
523.316406	8096.098633
521.929688	8091.052246
520.541016	8212.069336
519.152344	8170.991699
517.763672	8047.117188
516.375000	7907.086914
514.984375	8141.424316
513.595703	8048.208008
512.207031	8106.137695
510.816406	8086.704590
509.425781	8009.731934
508.035156	8076.626465
506.644531	8120.126953
505.253906	7951.522949
503.863281	8056.128906
502.470703	8067.267578
501.080078	8004.750000
499.687500	8067.979492
498.294922	8106.045898
496.902344	8057.916992
495.509766	7977.493164
494.117188	7897.097656
492.724609	8032.067383
491.330078	7987.573242
489.937500	7840.846191
488.542969	7796.401367
487.148438	7812.940430
485.753906	7929.874512
484.359375	7966.101562
482.964844	7858.936523
481.570312	7864.700195
480.173828	7832.837891
478.779297	7754.413574
477.382812	7847.948730
475.986328	7810.733398
474.589844	7698.338379
473.193359	7709.492676
471.796875	7681.269531
470.400391	7654.845703
469.001953	7699.992188
467.605469	7696.827148
466.207031	7749.103027
464.808594	7795.995605
463.410156	7597.948730
462.011719	7644.851074
460.613281	7625.612793
459.212891	7743.964355
457.814453	7681.839355
456.414062	7691.182617
455.015625	7554.083496
453.615234	7429.531738
452.214844	7601.367188
450.812500	7646.414062
449.412109	7575.448730
448.011719	7583.014648
446.609375	7494.246094
445.208984	7541.062500
443.806641	7500.480957
442.404297	7408.208008
441.001953	7463.926758
439.599609	7432.291504
438.195312	7425.615234
436.792969	7420.723145
435.390625	7456.803711
433.986328	7412.723633
432.582031	7482.625977
431.177734	7372.681641
429.773438	7440.785156
428.369141	7418.095703
426.964844	7247.719238
425.558594	7370.961426
424.152344	7357.189941
422.748047	7330.973145
421.341797	7295.875000
419.935547	7323.014160
418.529297	7327.035156
417.123047	7247.524902
415.714844	7310.195312
414.308594	7264.471191
412.900391	7197.447754
411.492188	7137.552246
410.085938	7063.472168
408.677734	7083.510742
407.267578	7036.091309
405.859375	7201.650391
404.451172	7072.605957
403.041016	7096.175293
401.632812	7158.757812
400.222656	6973.040039
398.812500	7097.679688
397.402344	6982.950195
395.992188	6979.925781
394.582031	6994.624023
393.169922	6915.409668
391.759766	7064.747559
390.347656	6907.616699
388.935547	6945.337402
387.523438	6949.403320
386.111328	6932.225098
384.699219	6920.362305
383.287109	6846.567871
381.873047	6967.420410
380.458984	6856.495117
379.046875	6920.705078
377.632812	6898.243652
376.218750	6958.886230
374.804688	6823.292969
373.390625	6827.371094
371.974609	6797.873047
370.560547	6768.385742
369.144531	6707.112793
367.728516	6790.682129
366.312500	6755.913574
364.896484	6689.378418
363.480469	6688.177734
362.064453	6628.737793
360.648438	6611.666992
359.230469	6703.982910
357.812500	6693.959961
356.396484	6518.164551
354.978516	6613.973633
353.560547	6644.518555
352.140625	6592.209473
350.722656	6457.090332
349.304688	6556.364258
347.884766	6652.079102
346.464844	6589.236816
345.044922	6649.689453
343.626953	6532.287598
342.205078	6451.895508
340.785156	6517.620117
339.365234	6321.114258
337.943359	6466.013672
336.523438	6478.924805
335.101562	6388.060547
333.679688	6286.677734
332.257812	6399.830566
330.835938	6421.532715
329.414062	6408.075684
327.990234	6285.674316
326.568359	6291.571777
325.144531	6197.340332
323.720703	6236.621094
322.296875	6326.811523
320.873047	6193.998535
319.449219	6287.674316
318.025391	6165.446289
316.599609	6146.790039
315.175781	6319.371094
313.750000	6163.874512
312.324219	6054.032227
310.898438	6163.411133
309.472656	5971.209961
308.046875	6017.462402
306.619141	6114.520508
305.193359	6027.562988
303.765625	5951.147461
302.337891	5983.356934
300.910156	5938.499023
299.482422	5956.690918
298.054688	5906.601562
296.626953	5991.303711
295.197266	5907.975586
293.769531	5770.437500
292.339844	5846.371094
290.910156	5806.839844
289.480469	5854.758789
288.050781	5790.761719
286.621094	5739.024414
285.191406	5771.199219
283.759766	5759.675293
282.330078	5755.144043
280.898438	5703.449219
279.466797	5618.588867
278.035156	5500.580566
276.603516	5681.163574
275.171875	5660.938965
273.738281	5686.098633
272.306641	5608.295898
270.873047	5544.478516
269.439453	5585.343750
268.005859	5682.002441
266.572266	5609.486816
265.138672	5631.140137
263.705078	5522.055176
262.269531	5531.516602
260.835938	5467.791992
259.400391	5522.554688
257.964844	5514.592285
256.529297	5454.387207
255.093750	5460.368652
253.658203	5386.267578
252.220703	5517.579590
250.785156	5469.598145
249.347656	5313.757812
247.910156	5422.395996
246.472656	5388.371582
245.035156	5368.270996
243.597656	5384.689941
242.160156	5248.125977
240.720703	5445.317871
239.283203	5268.823730
237.843750	5286.985352
236.404297	5393.732422
234.964844	5231.237305
233.525391	5365.739746
232.085938	5205.043945
230.644531	5330.822266
229.205078	5298.620605
227.763672	5306.340820
226.322266	5220.372070
224.880859	5235.041504
223.439453	5267.048340
221.998047	5127.379395
220.556641	5185.398926
219.113281	5255.530273
217.671875	5207.789551
216.228516	5175.660156
214.785156	5131.415527
213.341797	5087.186523
211.898438	5082.804688
210.455078	5057.645996
209.011719	5039.421387
207.566406	5109.476074
206.121094	4994.337891
204.677734	5009.007812
203.232422	4957.935547
201.787109	4950.121582
200.339844	4980.354980
198.894531	4984.642090
197.449219	4952.625977
196.001953	4894.695312
194.554688	4847.153809
193.107422	4879.104980
191.660156	4869.586426
190.212891	4813.438965
188.765625	4814.295898
187.318359	4816.878906
185.869141	4850.531738
184.421875	4813.412109
182.972656	4722.813477
181.523438	4684.004883
180.074219	4791.828125
178.625000	4692.659180
177.173828	4595.250000
175.724609	4713.374512
174.273438	4664.259277
172.822266	4618.608398
171.373047	4605.711914
169.921875	4606.601562
168.468750	4590.266602
167.017578	4503.330566
165.566406	4592.049805
164.113281	4579.168945
162.660156	4524.983887
161.208984	4475.980957
159.755859	4564.640137
158.302734	4515.647461
156.847656	4432.273438
155.394531	4428.032227
153.941406	4375.651855
152.486328	4276.876465
151.031250	4301.882812
149.576172	4323.443359
148.121094	4223.012695
146.666016	4187.893066
145.210938	4242.093262
143.753906	4248.193848
142.298828	4189.052734
140.841797	4102.468750
139.384766	4074.266846
137.927734	4064.949463
136.470703	4035.048584
135.013672	3960.561279
133.556641	3987.283447
132.097656	3833.957275
130.640625	3949.837891
129.181641	3902.843750
127.722656	4023.810791
126.263672	3894.576172
124.804688	4001.795898
123.343750	3901.729248
121.884766	3854.785400
120.423828	4021.879150
