#Wave		#Intensity
2198.949219	69699.320312
2198.015625	70165.515625
2197.083008	70255.203125
2196.149414	69415.468750
2195.215820	69770.367188
2194.282227	70376.812500
2193.347656	69931.000000
2192.414062	69466.593750
2191.479492	70533.062500
2190.545898	70183.765625
2189.611328	70345.531250
2188.675781	70451.078125
2187.741211	69668.742188
2186.806641	70025.695312
2185.871094	70270.242188
2184.935547	70319.585938
2184.000000	69789.007812
2183.064453	69929.257812
2182.128906	70203.023438
2181.193359	70415.265625
2180.256836	70186.796875
2179.320312	70321.531250
2178.383789	70440.195312
2177.447266	70129.085938
2176.510742	70282.429688
2175.573242	70507.765625
2174.636719	70346.195312
2173.699219	70323.375000
2172.761719	70161.882812
2171.824219	70189.757812
2170.886719	70937.414062
2169.948242	70216.148438
2169.010742	70494.500000
2168.072266	70026.687500
2167.133789	70560.718750
2166.195312	70780.265625
2165.256836	70802.656250
2164.317383	70785.093750
2163.378906	70546.570312
2162.439453	71053.421875
2161.500000	71025.171875
2160.560547	70323.734375
2159.620117	70543.031250
2158.680664	70871.312500
2157.740234	70694.171875
2156.800781	70785.656250
2155.860352	70643.148438
2154.919922	70888.765625
2153.978516	71190.109375
2153.038086	70975.859375
2152.096680	70838.718750
2151.156250	70799.906250
2150.214844	70673.460938
2149.273438	71510.945312
2148.331055	71105.656250
2147.389648	71486.210938
2146.447266	70574.156250
2145.505859	71010.390625
2144.563477	70332.187500
2143.621094	70797.492188
2142.677734	70721.585938
2141.735352	70828.679688
2140.791992	70874.750000
2139.848633	71336.968750
2138.906250	70725.664062
2137.961914	71015.507812
2137.018555	71077.398438
2136.075195	71846.523438
2135.130859	71322.937500
2134.186523	71448.289062
2133.242188	71234.710938
2132.297852	71293.851562
2131.353516	71217.992188
2130.409180	71369.726562
2129.463867	71328.265625
2128.518555	71699.484375
2127.573242	71287.703125
2126.627930	71344.117188
2125.682617	71331.757812
2124.736328	71715.921875
2123.791016	71669.140625
2122.844727	71891.914062
2121.898438	71958.726562
2120.952148	71531.531250
2120.005859	72073.781250
2119.058594	71694.242188
2118.112305	71671.265625
2117.165039	71619.250000
2116.217773	71781.039062
2115.270508	71900.546875
2114.323242	71801.023438
2113.375000	71690.984375
2112.426758	72477.710938
2111.479492	72299.023438
2110.531250	72241.671875
2109.583008	72384.687500
2108.633789	71860.828125
2107.685547	72451.828125
2106.736328	72094.125000
2105.787109	71773.414062
2104.837891	71974.312500
2103.888672	71990.804688
2102.939453	72578.625000
2101.989258	72584.476562
2101.040039	71916.523438
2100.089844	72751.406250
2099.139648	72336.242188
2098.189453	73139.195312
2097.239258	73010.781250
2096.288086	72535.289062
2095.336914	73101.148438
2094.386719	72762.500000
2093.435547	72789.304688
2092.483398	72689.960938
2091.532227	72637.945312
2090.581055	72888.039062
2089.628906	72463.031250
2088.676758	73025.570312
2087.724609	73002.398438
2086.772461	72603.835938
2085.819336	73507.257812
2084.867188	72851.570312
2083.914062	73211.507812
2082.960938	73146.335938
2082.007812	72931.679688
2081.054688	72916.398438
2080.101562	73239.359375
2079.147461	73402.289062
2078.194336	73067.156250
2077.240234	73589.078125
2076.286133	73489.835938
2075.331055	72955.765625
2074.376953	73707.914062
2073.421875	73548.468750
2072.467773	73213.640625
2071.512695	73378.945312
2070.557617	73203.929688
2069.602539	73159.812500
2068.646484	73306.710938
2067.691406	73639.304688
2066.735352	73202.789062
2065.779297	73639.882812
2064.823242	73849.335938
2063.867188	74035.195312
2062.910156	73491.734375
2061.954102	73771.664062
2060.997070	73939.132812
2060.040039	73827.015625
2059.083008	73965.687500
2058.125977	74025.960938
2057.167969	73579.664062
2056.209961	74177.757812
2055.252930	73556.703125
2054.294922	73815.328125
2053.336914	73922.523438
2052.377930	74207.078125
2051.419922	73949.000000
2050.460938	73672.750000
2049.501953	73579.117188
2048.542969	74158.109375
2047.583984	74160.859375
2046.625000	74445.054688
2045.665039	74476.414062
2044.706055	74309.757812
2043.746094	74208.273438
2042.786133	73968.804688
2041.826172	73734.617188
2040.865234	74344.000000
2039.905273	74135.851562
2038.944336	74419.640625
2037.983398	74583.632812
2037.022461	74872.437500
2036.061523	74177.929688
2035.100586	74391.281250
2034.138672	74341.937500
2033.176758	74648.773438
2032.215820	74030.156250
2031.253906	73897.726562
2030.291016	74729.343750
2029.329102	74391.601562
2028.366211	74583.859375
2027.404297	74334.546875
2026.441406	74560.500000
2025.478516	74807.132812
2024.514648	74472.250000
2023.551758	74467.078125
2022.587891	74768.078125
2021.625000	74363.328125
2020.661133	74272.562500
2019.696289	74788.695312
2018.732422	74544.898438
2017.768555	74630.437500
2016.803711	74928.492188
2015.838867	74951.726562
2014.874023	74508.546875
2013.909180	74728.734375
2012.944336	74909.984375
2011.978516	75036.789062
2011.013672	74852.828125
2010.047852	74844.968750
2009.082031	74472.140625
2008.116211	74523.867188
2007.149414	75170.710938
2006.183594	75199.007812
2005.216797	74627.195312
2004.250000	74960.742188
2003.283203	74508.101562
2002.316406	75123.351562
2001.349609	75464.382812
2000.381836	75508.085938
1999.414062	75006.570312
1998.446289	74944.406250
1997.478516	75432.460938
1996.510742	75455.468750
1995.542969	75096.312500
1994.574219	74701.132812
1993.605469	74504.843750
1992.636719	75020.914062
1991.667969	75206.523438
1990.699219	75324.984375
1989.729492	75193.203125
1988.760742	75391.570312
1987.791016	74929.757812
1986.821289	75213.171875
1985.851562	75207.789062
1984.880859	75058.078125
1983.911133	75217.632812
1982.940430	75243.156250
1981.969727	75193.976562
1980.999023	75665.031250
1980.028320	75257.867188
1979.057617	75399.210938
1978.085938	74994.804688
1977.115234	75048.632812
1976.143555	75694.265625
1975.171875	75997.500000
1974.199219	75410.625000
1973.227539	75829.531250
1972.254883	75186.320312
1971.283203	75558.835938
1970.310547	75666.460938
1969.337891	75596.710938
1968.364258	75401.078125
1967.391602	75832.375000
1966.417969	75403.015625
1965.444336	75482.312500
1964.470703	75584.679688
1963.497070	75319.890625
1962.523438	75458.187500
1961.548828	76035.289062
1960.575195	75857.789062
1959.600586	75829.148438
1958.625977	75490.148438
1957.651367	75810.367188
1956.675781	75658.656250
1955.701172	75558.281250
1954.725586	75632.234375
1953.750000	75916.312500
1952.774414	75295.765625
1951.798828	75682.273438
1950.822266	75571.718750
1949.846680	76147.554688
1948.870117	75906.359375
1947.893555	75652.445312
1946.916992	75782.570312
1945.940430	75477.570312
1944.962891	76045.234375
1943.986328	75348.859375
1943.008789	75857.507812
1942.031250	76176.718750
1941.053711	75979.304688
1940.075195	75602.984375
1939.097656	75886.281250
1938.119141	76202.703125
1937.140625	75560.789062
1936.162109	75606.343750
1935.183594	75894.539062
1934.205078	75516.062500
1933.225586	75656.062500
1932.246094	76002.812500
1931.266602	75629.609375
1930.287109	75932.843750
1929.307617	75771.570312
1928.328125	76263.460938
1927.347656	75464.484375
1926.367188	75413.031250
1925.386719	75749.171875
1924.406250	75705.328125
1923.425781	75452.476562
1922.444336	75943.890625
1921.463867	75652.859375
1920.482422	75323.718750
1919.500977	75608.562500
1918.518555	76226.929688
1917.537109	75732.335938
1916.555664	75301.562500
1915.573242	75899.281250
1914.590820	76079.414062
1913.608398	75936.328125
1912.625977	75709.335938
1911.642578	76171.742188
1910.660156	75558.218750
1909.676758	75768.750000
1908.693359	75651.257812
1907.709961	75739.687500
1906.725586	75357.921875
1905.742188	75929.148438
1904.757812	75946.335938
1903.773438	75841.593750
1902.789062	76127.992188
1901.804688	75469.703125
1900.820312	75801.757812
1899.834961	75364.585938
1898.849609	75326.007812
1897.865234	75401.617188
1896.878906	75464.523438
1895.893555	75649.148438
1894.908203	75539.523438
1893.921875	75990.312500
1892.935547	75703.195312
1891.949219	76014.382812
1890.962891	75707.085938
1889.976562	75899.062500
1888.989258	75434.812500
1888.002930	75880.054688
1887.015625	75988.320312
1886.028320	76628.281250
1885.041016	75508.523438
1884.052734	75381.382812
1883.065430	75709.820312
1882.077148	75729.445312
1881.088867	75961.562500
1880.100586	75950.773438
1879.112305	75838.828125
1878.123047	75580.265625
1877.134766	75683.304688
1876.145508	75520.898438
1875.156250	75879.156250
1874.166992	75479.250000
1873.176758	75680.750000
1872.187500	75922.593750
1871.197266	75697.140625
1870.207031	76196.429688
1869.216797	75657.960938
1868.226562	75261.023438
1867.236328	75956.968750
1866.245117	76047.093750
1865.253906	75483.789062
1864.262695	75742.953125
1863.271484	75865.843750
1862.280273	75504.578125
1861.289062	76040.898438
1860.296875	75946.898438
1859.304688	75832.765625
1858.312500	75945.437500
1857.320312	76438.476562
1856.328125	75775.210938
1855.334961	76283.203125
1854.341797	75753.640625
1853.348633	76155.726562
1852.355469	75981.265625
1851.362305	75967.921875
1850.369141	75624.968750
1849.375000	76009.171875
1848.380859	76692.546875
1847.386719	76392.390625
1846.392578	76280.914062
1845.398438	75659.148438
1844.403320	76050.531250
1843.409180	75853.718750
1842.414062	76154.468750
1841.418945	75696.437500
1840.422852	76398.976562
1839.427734	75948.593750
1838.431641	75897.585938
1837.436523	76449.093750
1836.440430	75652.554688
1835.444336	76329.375000
1834.447266	76393.742188
1833.451172	76016.570312
1832.454102	75807.570312
1831.457031	76300.812500
1830.459961	76249.789062
1829.462891	76492.085938
1828.465820	76075.101562
1827.467773	76312.328125
1826.469727	76308.937500
1825.472656	75892.195312
1824.473633	76692.875000
1823.475586	76474.039062
1822.477539	76047.468750
1821.478516	76459.664062
1820.479492	76010.710938
1819.480469	76067.414062
1818.481445	76471.875000
1817.482422	75905.570312
1816.482422	76097.312500
1815.483398	76233.968750
1814.483398	76015.539062
1813.483398	76134.656250
1812.482422	76296.218750
1811.482422	76405.242188
1810.481445	76491.742188
1809.480469	76225.976562
1808.480469	76492.296875
1807.478516	76396.429688
1806.477539	76328.054688
1805.476562	76042.523438
1804.474609	76381.062500
1803.472656	76692.023438
1802.470703	76501.382812
1801.468750	76233.468750
1800.465820	75843.437500
1799.463867	76241.539062
1798.460938	76567.195312
1797.458008	76087.562500
1796.455078	76430.578125
1795.451172	76589.054688
1794.448242	76049.867188
1793.444336	76004.093750
1792.440430	76262.187500
1791.436523	76109.304688
1790.432617	76265.203125
1789.428711	76294.085938
1788.423828	76459.843750
1787.418945	76279.648438
1786.414062	76487.640625
1785.409180	76434.367188
1784.404297	76587.531250
1783.398438	76703.343750
1782.393555	76115.515625
1781.387695	75642.234375
1780.381836	76123.484375
1779.375977	76182.132812
1778.369141	76116.531250
1777.363281	75792.617188
1776.356445	75980.429688
1775.349609	75815.562500
1774.342773	76028.125000
1773.335938	75875.710938
1772.328125	76065.843750
1771.320312	76082.210938
1770.312500	75771.085938
1769.304688	75990.890625
1768.296875	75855.968750
1767.289062	75691.335938
1766.280273	75816.820312
1765.271484	76175.265625
1764.263672	75710.773438
1763.253906	75444.671875
1762.245117	75337.226562
1761.236328	75918.421875
1760.226562	74991.164062
1759.216797	75500.406250
1758.207031	75989.656250
1757.197266	75981.203125
1756.186523	75638.640625
1755.176758	75657.460938
1754.166016	75503.093750
1753.155273	75474.929688
1752.144531	75234.085938
1751.133789	75408.726562
1750.122070	75504.195312
1749.110352	75844.335938
1748.099609	75497.320312
1747.086914	75533.406250
1746.075195	75196.437500
1745.063477	75304.195312
1744.050781	75273.617188
1743.038086	75238.101562
1742.025391	75442.070312
1741.012695	75334.953125
1740.000000	75691.828125
1738.986328	75476.132812
1737.973633	75100.156250
1736.959961	75005.492188
1735.946289	75665.492188
1734.932617	75052.968750
1733.917969	74854.820312
1732.903320	74908.140625
1731.889648	75562.757812
1730.875000	75539.554688
1729.860352	75415.343750
1728.844727	75421.726562
1727.830078	75918.164062
1726.814453	75658.531250
1725.798828	75352.210938
1724.783203	75469.343750
1723.767578	75665.179688
1722.750977	75386.078125
1721.735352	75333.390625
1720.718750	75179.882812
1719.702148	74984.609375
1718.685547	75057.414062
1717.667969	75201.476562
1716.651367	75426.585938
1715.633789	75772.039062
1714.616211	75090.335938
1713.598633	75113.906250
1712.581055	74928.695312
1711.562500	75634.960938
1710.543945	75358.875000
1709.526367	75284.171875
1708.506836	75454.937500
1707.488281	75233.007812
1706.469727	75362.000000
1705.450195	74985.609375
1704.431641	75489.851562
1703.412109	75334.273438
1702.391602	75105.187500
1701.372070	75155.632812
1700.352539	74951.164062
1699.332031	74847.226562
1698.311523	75218.640625
1697.291016	75207.781250
1696.270508	75020.578125
1695.249023	75918.226562
1694.228516	75219.265625
1693.207031	75715.109375
1692.185547	75119.210938
1691.164062	74932.179688
1690.141602	74640.000000
1689.120117	74763.773438
1688.097656	75560.062500
1687.075195	75627.375000
1686.052734	75156.796875
1685.030273	75326.820312
1684.006836	75560.320312
1682.984375	75451.640625
1681.960938	75301.460938
1680.937500	74894.851562
1679.913086	74844.953125
1678.889648	75449.468750
1677.865234	75043.046875
1676.841797	75334.867188
1675.817383	75065.265625
1674.792969	75393.578125
1673.767578	75211.882812
1672.743164	74720.468750
1671.717773	75080.359375
1670.692383	75427.929688
1669.666992	74583.234375
1668.641602	74762.570312
1667.615234	74907.734375
1666.589844	74745.820312
1665.563477	74856.812500
1664.537109	75413.507812
1663.510742	74861.937500
1662.483398	75109.195312
1661.457031	74869.476562
1660.429688	74941.390625
1659.402344	74465.718750
1658.375000	75360.078125
1657.347656	74193.601562
1656.319336	74192.601562
1655.291016	74459.109375
1654.263672	74445.898438
1653.235352	74515.351562
1652.206055	74592.062500
1651.177734	74676.039062
1650.148438	73717.632812
1649.119141	74564.515625
1648.089844	74784.460938
1647.060547	74241.789062
1646.031250	74085.367188
1645.000977	74033.375000
1643.971680	73915.875000
1642.941406	73596.992188
1641.911133	73207.851562
1640.879883	74519.367188
1639.849609	74042.890625
1638.818359	73990.945312
1637.787109	74171.773438
1636.755859	73690.750000
1635.724609	74588.976562
1634.692383	73897.218750
1633.661133	73736.304688
1632.628906	74045.390625
1631.596680	73685.898438
1630.564453	73527.523438
1629.531250	73780.789062
1628.499023	73554.664062
1627.465820	73539.179688
1626.432617	73281.710938
1625.399414	73561.437500
1624.366211	73679.000000
1623.332031	73542.562500
1622.298828	73887.375000
1621.264648	73482.585938
1620.230469	74199.531250
1619.195312	73545.890625
1618.161133	73107.539062
1617.125977	73456.945312
1616.091797	73238.570312
1615.056641	73669.929688
1614.020508	73330.851562
1612.985352	72803.585938
1611.949219	73172.023438
1610.914062	73014.218750
1609.877930	72610.335938
1608.841797	73128.179688
1607.804688	73264.726562
1606.768555	73254.117188
1605.731445	72954.148438
1604.694336	73269.046875
1603.657227	73545.257812
1602.620117	72999.585938
1601.582031	72931.179688
1600.544922	73021.796875
1599.506836	72690.867188
1598.468750	73099.375000
1597.430664	72479.609375
1596.391602	73001.148438
1595.353516	72578.984375
1594.314453	73220.640625
1593.275391	73017.531250
1592.236328	72549.867188
1591.196289	72320.484375
1590.157227	73096.390625
1589.117188	73011.250000
1588.077148	73017.484375
1587.037109	73004.492188
1585.997070	72619.015625
1584.956055	72361.015625
1583.916016	72662.828125
1582.875000	72337.656250
1581.833984	72622.546875
1580.792969	72998.570312
1579.750977	72563.085938
1578.708984	72494.960938
1577.667969	72158.093750
1576.625977	72521.921875
1575.583008	72789.671875
1574.541016	73026.140625
1573.499023	72305.734375
1572.456055	71686.273438
1571.413086	72903.226562
1570.370117	72564.289062
1569.326172	72697.531250
1568.283203	72564.789062
1567.239258	72836.906250
1566.195312	72694.601562
1565.151367	72779.828125
1564.107422	72486.742188
1563.062500	72610.265625
1562.018555	72549.460938
1560.973633	72727.953125
1559.928711	72600.156250
1558.883789	72142.304688
1557.837891	72524.054688
1556.791992	72468.085938
1555.747070	71988.976562
1554.701172	72148.242188
1553.654297	72639.632812
1552.608398	72511.992188
1551.561523	72255.382812
1550.515625	72493.296875
1549.468750	72186.625000
1548.421875	72460.281250
1547.374023	72449.742188
1546.327148	72546.617188
1545.279297	72695.953125
1544.231445	72597.085938
1543.183594	72254.921875
1542.135742	72366.062500
1541.086914	72317.382812
1540.039062	72747.960938
1538.990234	72880.398438
1537.941406	72290.593750
1536.891602	72513.609375
1535.842773	72660.304688
1534.792969	72318.593750
1533.743164	72429.539062
1532.693359	72316.593750
1531.643555	72044.164062
1530.593750	71824.203125
1529.542969	72218.367188
1528.492188	71722.406250
1527.441406	72470.953125
1526.390625	72479.421875
1525.339844	72183.453125
1524.288086	72405.984375
1523.237305	72345.500000
1522.185547	72068.718750
1521.132812	71811.054688
1520.081055	71850.507812
1519.029297	72160.781250
1517.976562	71938.859375
1516.923828	71681.382812
1515.871094	71623.460938
1514.818359	72168.585938
1513.764648	72131.953125
1512.710938	71962.429688
1511.658203	71766.859375
1510.603516	71628.296875
1509.549805	71729.351562
1508.496094	72107.843750
1507.441406	71438.140625
1506.386719	70844.546875
1505.332031	71561.937500
1504.277344	71387.992188
1503.222656	71818.320312
1502.166992	71575.679688
1501.111328	71558.148438
1500.055664	71254.062500
1499.000000	71103.992188
1497.944336	71148.093750
1496.887695	71350.757812
1495.831055	71747.406250
1494.774414	70915.914062
1493.717773	71099.578125
1492.661133	70821.953125
1491.603516	70979.554688
1490.546875	71184.375000
1489.489258	71001.437500
1488.430664	70880.007812
1487.373047	71108.367188
1486.315430	70790.859375
1485.256836	70893.937500
1484.198242	70637.984375
1483.139648	71069.289062
1482.081055	71006.992188
1481.021484	70793.632812
1479.962891	70415.140625
1478.903320	70588.953125
1477.843750	70781.578125
1476.783203	70584.914062
1475.723633	70765.671875
1474.663086	70569.070312
1473.602539	70372.539062
1472.541992	70546.164062
1471.481445	70095.164062
1470.420898	70066.117188
1469.359375	70051.218750
1468.297852	70236.531250
1467.236328	70195.695312
1466.174805	70331.460938
1465.113281	70551.937500
1464.050781	70035.578125
1462.988281	70312.500000
1461.925781	69796.367188
1460.863281	69696.820312
1459.800781	70340.570312
1458.737305	70163.351562
1457.673828	70331.828125
1456.610352	69757.367188
1455.546875	70348.929688
1454.483398	70157.718750
1453.418945	70457.640625
1452.355469	69608.703125
1451.291016	69882.773438
1450.226562	69987.664062
1449.161133	69453.875000
1448.096680	70192.625000
1447.031250	69464.179688
1445.965820	69759.140625
1444.900391	69495.578125
1443.834961	69766.960938
1442.768555	69090.703125
1441.703125	69415.992188
1440.636719	69211.281250
1439.570312	69566.898438
1438.502930	69373.953125
1437.436523	69523.195312
1436.369141	69021.062500
1435.301758	69516.992188
1434.234375	69476.414062
1433.166992	69197.007812
1432.098633	69062.851562
1431.031250	68877.242188
1429.962891	68766.585938
1428.894531	69453.882812
1427.826172	68751.257812
1426.756836	69248.843750
1425.688477	69222.382812
1424.619141	69132.796875
1423.549805	68276.421875
1422.479492	69330.031250
1421.410156	69149.320312
1420.339844	69209.335938
1419.270508	69297.359375
1418.200195	69696.007812
1417.128906	69050.625000
1416.058594	69493.523438
1414.987305	68183.078125
1413.916992	69006.421875
1412.845703	68977.695312
1411.773438	69130.960938
1410.702148	68957.578125
1409.629883	69227.406250
1408.558594	68359.140625
1407.486328	68724.570312
1406.413086	68686.578125
1405.340820	68266.367188
1404.267578	69165.242188
1403.195312	68609.953125
1402.122070	68541.710938
1401.048828	68438.562500
1399.974609	68775.554688
1398.901367	68744.562500
1397.827148	68459.859375
1396.752930	68684.945312
1395.678711	68207.203125
1394.603516	68322.898438
1393.529297	68510.664062
1392.454102	68196.007812
1391.378906	67876.804688
1390.303711	67829.726562
1389.228516	67689.687500
1388.152344	68377.039062
1387.076172	68257.851562
1386.000000	67976.085938
1384.923828	67701.390625
1383.847656	68434.679688
1382.770508	68032.289062
1381.694336	68150.054688
1380.617188	68239.921875
1379.540039	67693.890625
1378.461914	68236.242188
1377.384766	67576.734375
1376.306641	67903.203125
1375.228516	68315.359375
1374.150391	67779.070312
1373.072266	67662.554688
1371.993164	67520.578125
1370.914062	67422.679688
1369.834961	67721.007812
1368.755859	67743.570312
1367.676758	67858.757812
1366.597656	67742.328125
1365.517578	67968.601562
1364.437500	67907.750000
1363.357422	67569.195312
1362.276367	67742.140625
1361.196289	67570.304688
1360.115234	67160.273438
1359.034180	67425.703125
1357.953125	67198.515625
1356.872070	67482.328125
1355.790039	67375.398438
1354.708984	67458.015625
1353.626953	66731.867188
1352.544922	67334.367188
1351.461914	67601.726562
1350.379883	67321.648438
1349.296875	67503.476562
1348.213867	67749.867188
1347.130859	66987.507812
1346.047852	67247.750000
1344.963867	66841.070312
1343.880859	67643.359375
1342.796875	67474.328125
1341.712891	67508.281250
1340.627930	67438.468750
1339.543945	67456.281250
1338.458984	67423.375000
1337.374023	67254.515625
1336.289062	67295.375000
1335.204102	67290.148438
1334.118164	67176.671875
1333.033203	67357.992188
1331.947266	66830.117188
1330.861328	66866.398438
1329.774414	67095.992188
1328.688477	67175.937500
1327.601562	67458.304688
1326.514648	67319.617188
1325.427734	66985.492188
1324.340820	66720.460938
1323.252930	66834.867188
1322.165039	67165.296875
1321.077148	67079.632812
1319.989258	66817.070312
1318.901367	66476.484375
1317.813477	66641.351562
1316.724609	66863.570312
1315.635742	66736.687500
1314.546875	66830.242188
1313.457031	66932.945312
1312.368164	66459.585938
1311.278320	67046.437500
1310.188477	66502.117188
1309.098633	66026.789062
1308.008789	66588.171875
1306.917969	66234.515625
1305.827148	65995.601562
1304.737305	66400.820312
1303.645508	66400.289062
1302.554688	65877.367188
1301.462891	66268.632812
1300.372070	66142.140625
1299.280273	66185.148438
1298.188477	66315.140625
1297.095703	66117.742188
1296.003906	66062.304688
1294.911133	65691.109375
1293.818359	65942.335938
1292.725586	65523.257812
1291.631836	65950.523438
1290.539062	65634.484375
1289.445312	65592.898438
1288.351562	65843.898438
1287.257812	65667.445312
1286.164062	65358.531250
1285.069336	64855.539062
1283.974609	65467.375000
1282.879883	65585.710938
1281.785156	65165.136719
1280.690430	65835.929688
1279.594727	64778.656250
1278.499023	65033.937500
1277.403320	65206.984375
1276.307617	64668.226562
1275.211914	65078.476562
1274.115234	65116.871094
1273.018555	65130.167969
1271.921875	65587.976562
1270.825195	64721.421875
1269.728516	64600.328125
1268.630859	64668.378906
1267.533203	64515.445312
1266.435547	64414.945312
1265.337891	64278.042969
1264.239258	64407.562500
1263.141602	64386.796875
1262.042969	63931.347656
1260.944336	64315.699219
1259.845703	64285.855469
1258.746094	64153.660156
1257.647461	64385.382812
1256.547852	64053.117188
1255.448242	64109.718750
1254.347656	64177.660156
1253.248047	64186.492188
1252.147461	63981.730469
1251.046875	64172.324219
1249.946289	63604.222656
1248.845703	64015.093750
1247.744141	63903.589844
1246.643555	63574.199219
1245.541992	63710.207031
1244.440430	63852.976562
1243.337891	63809.640625
1242.236328	63578.035156
1241.133789	63627.750000
1240.031250	63831.640625
1238.928711	64074.000000
1237.826172	64012.515625
1236.722656	63781.070312
1235.619141	63984.777344
1234.515625	63828.179688
1233.412109	63594.617188
1232.308594	63580.824219
1231.204102	63598.730469
1230.100586	63374.386719
1228.996094	63175.019531
1227.890625	63783.656250
1226.786133	63305.968750
1225.680664	62887.273438
1224.576172	63420.980469
1223.470703	63481.843750
1222.364258	62839.488281
1221.258789	63259.871094
1220.152344	63277.777344
1219.046875	63254.996094
1217.940430	63248.039062
1216.833008	63631.886719
1215.726562	63157.324219
1214.619141	63032.953125
1213.511719	63373.726562
1212.404297	63450.261719
1211.296875	63122.769531
1210.189453	63248.957031
1209.081055	63320.953125
1207.972656	63720.000000
1206.864258	63137.832031
1205.755859	63092.546875
1204.646484	63265.957031
1203.537109	63139.511719
1202.427734	63517.929688
1201.318359	63127.843750
1200.208984	63416.011719
1199.098633	62821.105469
1197.989258	63318.656250
1196.878906	62886.097656
1195.768555	63036.761719
1194.657227	62768.714844
1193.546875	62946.343750
1192.435547	62865.156250
1191.324219	63006.703125
1190.212891	63071.726562
1189.100586	63303.132812
1187.989258	62967.863281
1186.876953	62918.203125
1185.764648	63037.125000
1184.652344	62598.707031
1183.539062	62674.949219
1182.426758	63025.214844
1181.313477	62688.097656
1180.200195	62784.484375
1179.086914	62885.324219
1177.972656	62853.683594
1176.858398	62875.917969
1175.744141	62752.289062
1174.629883	62727.417969
1173.515625	62724.980469
1172.401367	63079.121094
1171.286133	62859.117188
1170.170898	62728.867188
1169.055664	62600.898438
1167.939453	62865.156250
1166.824219	62484.015625
1165.708008	62562.253906
1164.591797	62535.191406
1163.475586	62472.304688
1162.359375	62962.468750
1161.242188	62518.964844
1160.125000	62057.710938
1159.007812	61883.058594
1157.890625	62278.992188
1156.773438	62243.046875
1155.655273	61835.847656
1154.537109	61804.464844
1153.418945	62247.066406
1152.300781	62063.609375
1151.181641	61907.039062
1150.063477	61808.621094
1148.944336	62313.441406
1147.825195	61538.167969
1146.706055	61475.593750
1145.585938	61634.093750
1144.465820	61995.691406
1143.345703	61388.433594
1142.225586	61767.789062
1141.105469	61673.980469
1139.984375	61486.507812
1138.864258	61323.632812
1137.743164	61495.320312
1136.622070	61796.261719
1135.500000	61307.945312
1134.378906	61388.152344
1133.256836	62029.886719
1132.134766	61503.910156
1131.011719	61492.699219
1129.889648	61452.535156
1128.766602	61730.812500
1127.644531	61289.867188
1126.520508	61214.140625
1125.397461	61031.609375
1124.274414	60749.011719
1123.150391	60978.203125
1122.026367	60973.757812
1120.902344	60838.093750
1119.778320	60869.246094
1118.653320	60902.605469
1117.528320	60898.164062
1116.404297	60853.718750
1115.278320	60815.953125
1114.153320	60851.507812
1113.027344	60662.714844
1111.902344	60707.164062
1110.776367	60809.320312
1109.649414	60494.097656
1108.523438	60565.179688
1107.396484	60394.351562
1106.269531	60514.230469
1105.142578	60410.015625
1104.015625	60026.386719
1102.888672	60274.871094
1101.760742	60385.804688
1100.632812	60541.027344
1099.504883	60572.082031
1098.376953	60798.113281
1097.248047	60556.605469
1096.119141	60343.980469
1094.990234	60138.070312
1093.861328	60352.937500
1092.732422	60428.250000
1091.602539	60295.476562
1090.473633	60470.351562
1089.343750	60324.335938
1088.212891	60793.363281
1087.083008	60543.378906
1085.952148	60176.285156
1084.821289	60401.863281
1083.690430	60762.203125
1082.559570	60817.402344
1081.428711	60472.609375
1080.296875	59995.382812
1079.165039	60125.789062
1078.033203	60713.316406
1076.900391	60426.199219
1075.768555	60245.152344
1074.635742	60505.644531
1073.502930	60260.644531
1072.370117	60240.796875
1071.237305	60355.531250
1070.103516	59349.707031
1068.969727	60042.355469
1067.835938	60300.375000
1066.702148	60293.753906
1065.567383	60364.277344
1064.433594	60013.859375
1063.298828	60652.859375
1062.164062	60146.109375
1061.028320	59908.246094
1059.893555	59760.750000
1058.757812	60159.332031
1057.622070	60117.503906
1056.486328	59996.457031
1055.350586	60139.511719
1054.213867	59932.695312
1053.077148	60132.898438
1051.940430	59849.179688
1050.803711	59904.187500
1049.666992	60163.632812
1048.529297	59647.062500
1047.391602	60025.128906
1046.253906	60071.265625
1045.116211	59866.941406
1043.977539	59897.710938
1042.838867	59539.761719
1041.701172	60137.054688
1040.561523	59735.285156
1039.422852	59790.187500
1038.283203	59156.011719
1037.144531	59698.074219
1036.004883	59452.417969
1034.864258	59592.859375
1033.724609	60033.667969
1032.583984	59435.089844
1031.444336	59948.097656
1030.302734	59310.300781
1029.162109	59805.605469
1028.021484	59327.996094
1026.879883	59374.074219
1025.738281	59531.824219
1024.596680	59157.429688
1023.455078	59814.300781
1022.312500	59227.671875
1021.169922	59538.511719
1020.027344	59127.183594
1018.884766	59678.562500
1017.742188	58794.914062
1016.598633	59313.343750
1015.455078	59232.500000
1014.311523	59508.003906
1013.167969	59433.707031
1012.023438	59772.441406
1010.878906	59213.082031
1009.734375	59151.980469
1008.589844	59263.429688
1007.445312	58798.363281
1006.299805	59064.843750
1005.155273	59381.429688
1004.009766	59097.726562
1002.863281	59250.535156
1001.717773	59078.218750
1000.571289	58969.218750
999.424805	59259.347656
998.278320	58858.175781
997.131836	59302.992188
995.984375	58788.613281
994.837891	59045.863281
993.690430	58658.085938
992.542969	59102.605469
991.394531	58847.812500
990.247070	58630.132812
989.098633	59050.453125
987.950195	58750.089844
986.801758	59141.937500
985.652344	58787.261719
984.502930	58907.000000
983.354492	59366.023438
982.204102	58835.335938
981.054688	58872.363281
979.905273	58894.152344
978.754883	58772.476562
977.604492	59018.117188
976.454102	58931.218750
975.302734	58492.421875
974.152344	58992.097656
973.000977	58540.414062
971.849609	58601.300781
970.697266	58920.492188
969.545898	58955.238281
968.393555	59068.093750
967.241211	58547.367188
966.088867	58473.695312
964.936523	58443.421875
963.783203	58510.738281
962.629883	58935.750000
961.476562	59382.281250
960.323242	58268.238281
959.169922	58498.035156
958.015625	58502.441406
956.861328	58628.136719
955.707031	58556.714844
954.552734	58595.738281
953.397461	58539.496094
952.242188	58320.937500
951.086914	58598.023438
949.931641	58760.328125
948.776367	59093.468750
947.620117	58617.582031
946.463867	58948.457031
945.307617	58113.863281
944.151367	58390.664062
942.995117	58410.171875
941.837891	58207.101562
940.680664	58753.785156
939.523438	58218.070312
938.365234	58203.027344
937.208008	58101.621094
936.049805	57939.796875
934.891602	58358.664062
933.733398	58350.070312
932.574219	58654.343750
931.416016	58399.765625
930.256836	58458.027344
929.097656	58507.636719
927.937500	58350.242188
926.778320	57869.550781
925.618164	58059.328125
924.458008	57936.574219
923.297852	58205.980469
922.136719	57904.449219
920.976562	57949.773438
919.815430	57624.707031
918.654297	58135.089844
917.492188	57788.578125
916.331055	58057.699219
915.168945	57730.691406
914.006836	57853.429688
912.844727	58066.457031
911.682617	57750.375000
910.519531	57449.457031
909.356445	57473.253906
908.193359	57275.660156
907.030273	57686.289062
905.866211	57858.273438
904.703125	57776.710938
903.539062	57581.347656
902.374023	57544.953125
901.209961	57293.875000
900.044922	57145.921875
898.880859	57373.601562
897.715820	57631.234375
896.549805	56959.824219
895.384766	57959.597656
894.218750	57221.882812
893.052734	57354.980469
891.886719	57069.988281
890.720703	56847.253906
889.553711	57098.207031
888.386719	57460.476562
887.219727	56940.019531
886.052734	57188.664062
884.885742	57255.195312
883.717773	57323.839844
882.549805	57490.921875
881.381836	57306.945312
880.213867	57313.476562
879.044922	57362.796875
877.875977	56956.472656
876.707031	57129.875000
875.538086	56736.570312
874.368164	56927.046875
873.199219	56497.582031
872.029297	57032.097656
870.859375	57211.718750
869.688477	57068.695312
868.518555	56722.812500
867.347656	57086.039062
866.176758	57069.082031
865.005859	57329.640625
863.833984	57205.921875
862.663086	57218.820312
861.491211	56506.308594
860.319336	57150.730469
859.146484	57212.675781
857.974609	57255.402344
856.801758	57142.480469
855.628906	57338.671875
854.456055	57078.718750
853.282227	56919.007812
852.109375	57191.816406
850.935547	56972.500000
849.761719	57402.781250
848.586914	57251.632812
847.413086	57262.328125
846.238281	57519.910156
845.063477	57170.914062
843.888672	57102.886719
842.712891	57158.261719
841.538086	57083.875000
840.362305	57679.339844
839.186523	57058.492188
838.009766	57141.457031
836.833984	57181.882812
835.657227	57339.160156
834.480469	57502.746094
833.303711	57237.210938
832.125977	56937.792969
830.949219	57103.480469
829.771484	57347.648438
828.592773	56999.550781
827.415039	57511.031250
826.237305	56904.175781
825.058594	57786.707031
823.879883	57400.597656
822.700195	57150.343750
821.521484	57436.574219
820.341797	56980.785156
819.162109	57550.925781
817.982422	57682.230469
816.802734	56866.484375
815.622070	56714.027344
814.442383	57186.367188
813.260742	57686.058594
812.080078	57127.062500
810.899414	57404.328125
809.717773	56911.187500
808.536133	57410.546875
807.354492	57304.707031
806.172852	57495.007812
804.990234	56932.425781
803.807617	56839.410156
802.625000	57074.078125
801.442383	56911.320312
800.258789	57107.843750
799.076172	57367.671875
797.892578	56930.347656
796.708008	57399.183594
795.524414	57392.757812
794.339844	57071.773438
793.155273	57170.941406
791.970703	56759.367188
790.786133	57086.425781
789.601562	57210.839844
788.416016	56780.500000
787.230469	56824.785156
786.044922	56620.269531
784.858398	57391.816406
783.672852	57199.906250
782.486328	57113.429688
781.299805	56896.355469
780.112305	56965.835938
778.925781	56923.664062
777.738281	57062.593750
776.550781	56228.843750
775.363281	56750.929688
774.174805	56723.550781
772.986328	57011.789062
771.797852	56649.886719
770.609375	56563.640625
769.420898	56498.457031
768.231445	56933.687500
767.042969	56841.125000
765.853516	56544.730469
764.663086	56334.593750
763.473633	56498.500000
762.283203	56548.914062
761.092773	56332.589844
759.902344	56746.269531
758.710938	56710.527344
757.520508	56800.734375
756.329102	56473.285156
755.137695	56674.703125
753.946289	56475.363281
752.753906	56523.585938
751.561523	56592.761719
750.369141	56225.804688
749.176758	56697.488281
747.984375	56634.542969
746.791016	56632.390625
745.597656	56429.105469
744.404297	56443.746094
743.210938	56194.492188
742.016602	56634.226562
740.822266	56422.710938
739.627930	56521.054688
738.433594	56194.527344
737.238281	56240.562500
736.043945	56349.339844
734.848633	56539.640625
733.652344	56332.542969
732.457031	56460.050781
731.260742	56556.148438
730.065430	56156.875000
728.868164	56388.816406
727.671875	56704.238281
726.475586	56037.777344
725.278320	56419.972656
724.081055	56451.226562
722.883789	56282.046875
721.685547	56403.062500
720.487305	56244.386719
719.289062	55856.246094
718.090820	56429.957031
716.892578	56215.039062
715.693359	56659.171875
714.494141	56048.144531
713.294922	56640.144531
712.095703	56052.265625
710.896484	56316.882812
709.696289	56689.734375
708.496094	56945.792969
707.295898	56431.179688
706.094727	56287.394531
704.894531	56241.507812
703.693359	56655.644531
702.492188	56310.023438
701.290039	56609.546875
700.088867	56080.996094
698.886719	56488.597656
697.684570	56278.429688
696.481445	56602.675781
695.279297	56479.863281
694.076172	56564.933594
692.873047	56897.246094
691.669922	56279.972656
690.466797	56392.027344
689.262695	56047.136719
688.058594	56341.914062
686.854492	56453.886719
685.650391	56445.425781
684.445312	56466.019531
683.240234	56281.191406
682.035156	56191.855469
680.830078	56612.781250
679.624023	56660.273438
678.418945	56330.402344
677.212891	56494.011719
676.006836	56164.289062
674.799805	56383.812500
673.593750	56377.429688
672.386719	56652.753906
671.179688	56544.832031
669.971680	56211.253906
668.764648	56287.703125
667.556641	56136.441406
666.348633	56266.675781
665.140625	56098.914062
663.931641	56315.988281
662.722656	56785.312500
661.513672	56694.050781
660.304688	56497.378906
659.095703	56288.375000
657.885742	56211.718750
656.675781	55457.316406
655.465820	55833.289062
654.255859	56072.789062
653.044922	56025.132812
651.833984	56111.707031
650.623047	55952.574219
649.412109	56006.097656
648.200195	55642.738281
646.989258	56032.609375
645.777344	55943.738281
644.565430	55557.898438
643.352539	55761.968750
642.139648	55500.003906
640.927734	55675.144531
639.713867	55804.875000
638.500977	55845.949219
637.287109	55538.832031
636.074219	55720.003906
634.860352	55748.703125
633.645508	55299.695312
632.431641	55915.175781
631.216797	55974.695312
630.001953	55495.019531
628.787109	55758.277344
627.571289	55772.523438
626.356445	55587.261719
625.140625	55613.867188
623.924805	56026.984375
622.708008	55389.542969
621.491211	55835.421875
620.275391	55970.855469
619.058594	55945.992188
617.840820	55719.839844
616.624023	55582.078125
615.406250	55844.750000
614.188477	56129.902344
612.970703	55887.457031
611.751953	55928.289062
610.533203	55852.152344
609.314453	55593.476562
608.095703	55550.242188
606.876953	55476.265625
605.657227	55797.996094
604.437500	55543.613281
603.217773	55094.625000
601.998047	55178.554688
600.777344	55457.070312
599.556641	55616.679688
598.335938	55348.218750
597.115234	55180.183594
595.893555	55292.660156
594.672852	55161.535156
593.451172	55652.546875
592.228516	55294.292969
591.006836	55191.871094
589.784180	55451.484375
588.561523	55103.687500
587.338867	55596.281250
586.116211	54933.800781
584.892578	55606.078125
583.668945	55064.390625
582.445312	55023.414062
581.221680	55466.527344
579.997070	55611.320312
578.772461	55300.746094
577.547852	55406.722656
576.323242	55137.117188
575.097656	55283.894531
573.872070	55373.484375
572.646484	55397.765625
571.420898	55311.906250
570.195312	55425.902344
568.968750	55348.218750
567.742188	55337.824219
566.515625	55274.445312
565.289062	55223.312500
564.061523	55182.382812
562.833984	55265.710938
561.606445	55428.421875
560.377930	54970.085938
559.150391	55130.750000
557.921875	54912.796875
556.693359	55258.582031
555.464844	55010.164062
554.235352	54951.007812
553.005859	55070.835938
551.776367	55548.484375
550.546875	54901.730469
549.317383	54661.730469
548.086914	54824.191406
546.856445	55059.730469
545.625977	54813.734375
544.394531	55002.472656
543.164062	54594.121094
541.932617	55010.210938
540.700195	54618.246094
539.468750	54685.093750
538.236328	54240.578125
537.004883	54441.363281
535.771484	54218.144531
534.539062	54514.171875
533.306641	54301.156250
532.073242	54592.992188
530.839844	54185.460938
529.605469	54015.175781
528.372070	54321.078125
527.137695	54132.593750
525.903320	53836.835938
524.668945	54004.898438
523.433594	54172.890625
522.199219	54361.062500
520.963867	54000.714844
519.728516	53759.878906
518.492188	53454.394531
517.255859	53812.449219
516.020508	53705.250000
514.783203	53614.261719
513.546875	53648.636719
512.309570	53691.082031
511.072266	54048.742188
509.834961	53794.097656
508.597656	53802.144531
507.359375	53787.968750
506.122070	53745.527344
504.883789	53481.027344
503.644531	53569.855469
502.406250	53749.457031
501.166992	53596.074219
499.927734	53636.406250
498.688477	53924.800781
497.448242	53856.156250
496.208984	54067.785156
494.968750	53858.027344
493.727539	53630.210938
492.487305	53716.820312
491.246094	53466.949219
490.004883	53912.093750
488.763672	53634.078125
487.522461	53501.136719
486.280273	53853.410156
485.038086	53664.117188
483.795898	53841.148438
482.553711	53828.980469
481.310547	53822.847656
480.067383	53943.421875
478.824219	53535.093750
477.581055	53645.621094
476.336914	53679.722656
475.092773	53991.148438
473.848633	53492.687500
472.604492	53942.644531
471.360352	53773.785156
470.115234	53749.574219
468.870117	53639.039062
467.625000	53998.281250
466.378906	54084.425781
465.132812	53622.710938
463.886719	53436.027344
462.640625	53863.230469
461.394531	53542.199219
460.147461	53483.960938
458.900391	53722.453125
457.653320	53255.300781
456.405273	53537.828125
455.158203	53764.148438
453.910156	53191.070312
452.662109	53197.042969
451.413086	53437.304688
450.165039	53483.269531
448.916016	52724.500000
447.666992	53044.765625
446.416992	53082.765625
445.167969	53046.722656
443.917969	52648.648438
442.667969	52866.679688
441.416992	52874.679688
440.166992	53070.593750
438.916016	52630.832031
437.665039	53044.531250
436.414062	52808.726562
435.162109	52884.640625
433.910156	52419.269531
432.658203	52481.242188
431.406250	52421.402344
430.154297	52269.761719
428.901367	52457.453125
427.648438	52030.500000
426.395508	52545.332031
425.141602	52192.320312
423.888672	52774.726562
422.634766	52549.406250
421.379883	52326.160156
420.125977	52569.378906
418.871094	52288.421875
417.616211	52700.894531
416.361328	52862.226562
415.106445	53113.113281
413.850586	52726.722656
412.594727	53138.792969
411.338867	52840.117188
410.083008	52812.199219
408.826172	52617.160156
407.569336	52129.761719
406.312500	52569.386719
405.055664	52402.332031
403.797852	51871.503906
402.540039	51982.933594
401.282227	52271.199219
400.024414	51710.882812
398.765625	51905.710938
397.506836	51881.972656
396.248047	51844.339844
394.989258	52090.648438
393.729492	51973.578125
392.469727	51612.417969
391.209961	51602.636719
389.950195	51811.097656
388.690430	51592.992188
387.429688	51426.531250
386.168945	51749.906250
384.907227	51724.234375
383.646484	51847.230469
382.384766	51217.101562
381.123047	51334.199219
379.861328	51175.886719
378.598633	51463.277344
377.336914	51316.875000
376.074219	50932.937500
374.810547	51176.656250
373.547852	50990.800781
372.284180	50820.843750
371.020508	51505.621094
369.756836	51343.539062
368.493164	51187.449219
367.228516	50628.050781
365.963867	50944.628906
364.699219	50857.875000
363.433594	50547.847656
362.167969	50516.519531
360.903320	50418.035156
359.636719	50698.789062
358.371094	50971.539062
357.104492	50237.300781
355.837891	50095.507812
354.571289	50500.433594
353.304688	50358.644531
352.037109	49972.277344
350.769531	50018.011719
349.501953	49825.113281
348.234375	50154.769531
346.965820	50032.878906
345.697266	50023.371094
344.428711	50469.058594
343.159180	50008.304688
341.890625	50115.015625
340.621094	49713.582031
339.351562	50090.058594
338.081055	49917.140625
336.811523	49913.558594
335.541016	49683.664062
334.270508	49808.007812
332.999023	50233.281250
331.728516	49914.945312
330.457031	49384.355469
329.185547	49571.566406
327.913086	49532.652344
326.641602	49678.488281
325.369141	49138.515625
324.096680	49237.214844
322.824219	49548.007812
321.550781	49232.230469
320.277344	49077.570312
319.003906	49168.347656
317.730469	49019.640625
316.456055	49420.433594
315.181641	49046.109375
313.907227	49236.855469
312.632812	49417.718750
311.357422	49353.406250
310.082031	49018.582031
308.806641	49026.890625
307.531250	49658.371094
306.254883	49619.527344
304.979492	49467.078125
303.702148	49741.648438
302.425781	49857.500000
301.149414	50188.664062
299.872070	50378.765625
298.594727	50171.503906
297.316406	50289.132812
296.039062	50770.589844
294.760742	50952.601562
293.482422	51013.292969
292.204102	51122.843750
290.924805	50096.585938
289.645508	49170.394531
288.366211	48676.410156
287.086914	48872.273438
285.806641	48210.539062
284.526367	48369.304688
283.246094	47991.042969
281.965820	48087.312500
280.684570	47689.726562
279.404297	48223.144531
278.122070	47657.882812
276.840820	47576.617188
275.559570	47733.324219
274.277344	47423.921875
272.995117	47317.394531
271.711914	47160.226562
270.429688	47443.562500
269.146484	46812.937500
267.863281	47100.121094
266.580078	46816.500000
265.295898	46928.304688
264.011719	47341.855469
262.727539	47089.488281
261.443359	46899.500000
260.158203	46802.980469
258.873047	46685.097656
257.587891	46855.140625
256.302734	47099.019531
255.016602	46473.644531
253.730469	46707.777344
252.444336	46741.621094
251.158203	46443.140625
249.871094	46562.507812
248.584961	46374.898438
247.297852	46674.851562
246.009766	46875.652344
244.722656	46523.058594
243.434570	46248.246094
242.146484	46324.800781
240.857422	46203.410156
239.569336	45942.386719
238.280273	46399.109375
236.991211	46068.332031
235.701172	45999.421875
234.412109	45913.093750
233.122070	46386.906250
231.832031	46416.796875
230.541016	46814.773438
229.250977	47321.066406
227.959961	47819.417969
226.668945	47715.398438
225.376953	47214.554688
224.085938	46079.050781
222.793945	45776.093750
221.501953	45726.710938
220.208984	45418.128906
218.916992	44962.679688
217.624023	45118.437500
216.331055	44757.945312
215.037109	45180.425781
213.743164	44965.000000
212.450195	44672.363281
211.155273	44014.718750
209.861328	44713.210938
208.566406	44227.675781
207.271484	44010.691406
205.976562	44239.699219
204.681641	43646.449219
203.385742	44064.535156
202.089844	43753.210938
200.793945	43885.640625
199.497070	43846.382812
198.201172	43679.878906
196.904297	43652.238281
195.607422	43543.652344
194.309570	43712.597656
193.011719	43039.531250
191.713867	43029.359375
190.416016	43169.410156
189.118164	43236.238281
187.819336	42733.183594
186.520508	43063.761719
185.221680	42849.593750
183.921875	43220.425781
182.622070	42867.800781
181.322266	42971.136719
180.022461	42130.257812
178.721680	42606.675781
177.421875	42413.972656
176.121094	42284.765625
174.819336	42261.285156
173.518555	42376.136719
172.216797	42865.484375
170.915039	42469.347656
169.613281	42202.000000
168.310547	42320.601562
167.007812	42049.542969
165.705078	42054.910156
164.402344	41818.535156
163.098633	41986.984375
161.794922	41754.546875
160.491211	42093.593750
159.187500	41805.621094
157.882812	41345.257812
156.578125	41684.179688
155.273438	41153.121094
153.968750	41396.167969
152.663086	41244.578125
151.357422	40966.664062
150.051758	41251.718750
148.746094	40830.343750
147.439453	40770.835938
146.132812	40996.441406
144.826172	40929.265625
143.518555	40665.105469
142.211914	40536.824219
140.904297	40595.953125
139.596680	40202.023438
138.288086	40415.996094
136.979492	40320.335938
135.670898	40056.585938
134.362305	39991.589844
133.053711	39559.945312
131.744141	38968.082031
130.434570	38616.972656
129.124023	38363.339844
127.814453	37552.589844
126.503906	36957.742188
125.193359	36021.671875
123.882812	35982.328125
122.571289	35239.386719
121.259766	34330.875000
119.948242	33441.769531
