#Wave		#Intensity
2198.949219	131272.312500
2198.015625	131604.546875
2197.083008	130649.609375
2196.149414	131773.406250
2195.215820	131865.828125
2194.282227	131527.125000
2193.347656	132232.578125
2192.414062	131642.328125
2191.479492	132227.078125
2190.545898	132412.953125
2189.611328	131568.828125
2188.675781	132450.171875
2187.741211	131531.437500
2186.806641	131885.734375
2185.871094	131710.593750
2184.935547	132505.734375
2184.000000	132250.359375
2183.064453	132393.187500
2182.128906	132092.500000
2181.193359	131222.984375
2180.256836	132476.843750
2179.320312	132691.609375
2178.383789	132810.171875
2177.447266	132800.578125
2176.510742	132705.593750
2175.573242	132621.296875
2174.636719	133054.578125
2173.699219	133172.968750
2172.761719	132763.265625
2171.824219	132934.984375
2170.886719	132770.718750
2169.948242	133339.515625
2169.010742	132644.906250
2168.072266	132621.984375
2167.133789	133004.000000
2166.195312	132799.890625
2165.256836	133205.718750
2164.317383	133275.890625
2163.378906	133053.187500
2162.439453	133344.281250
2161.500000	133454.296875
2160.560547	134000.656250
2159.620117	133783.281250
2158.680664	134119.250000
2157.740234	134316.796875
2156.800781	133846.859375
2155.860352	133855.625000
2154.919922	133627.812500
2153.978516	134279.750000
2153.038086	134179.468750
2152.096680	134209.406250
2151.156250	132980.250000
2150.214844	134582.609375
2149.273438	134227.406250
2148.331055	133681.187500
2147.389648	134029.671875
2146.447266	134388.671875
2145.505859	134137.218750
2144.563477	133774.421875
2143.621094	134287.109375
2142.677734	134818.171875
2141.735352	134190.265625
2140.791992	135081.718750
2139.848633	134485.781250
2138.906250	134311.437500
2137.961914	134460.437500
2137.018555	134712.703125
2136.075195	134496.015625
2135.130859	134978.593750
2134.186523	135312.718750
2133.242188	135146.328125
2132.297852	134437.343750
2131.353516	134914.281250
2130.409180	134761.265625
2129.463867	135097.750000
2128.518555	134891.843750
2127.573242	135786.234375
2126.627930	135656.937500
2125.682617	135702.203125
2124.736328	136175.656250
2123.791016	135641.984375
2122.844727	135666.062500
2121.898438	135645.203125
2120.952148	135658.703125
2120.005859	136203.046875
2119.058594	135899.546875
2118.112305	135596.140625
2117.165039	136216.750000
2116.217773	136678.781250
2115.270508	136024.421875
2114.323242	136845.140625
2113.375000	136069.625000
2112.426758	135386.671875
2111.479492	136987.625000
2110.531250	136689.687500
2109.583008	135999.062500
2108.633789	137108.812500
2107.685547	136755.656250
2106.736328	136573.875000
2105.787109	137034.906250
2104.837891	137303.515625
2103.888672	137424.546875
2102.939453	137284.875000
2101.989258	137313.718750
2101.040039	137118.843750
2100.089844	137766.109375
2099.139648	136987.109375
2098.189453	137818.296875
2097.239258	137949.578125
2096.288086	137812.578125
2095.336914	137549.421875
2094.386719	137791.078125
2093.435547	138332.281250
2092.483398	138048.125000
2091.532227	138037.312500
2090.581055	138310.218750
2089.628906	138002.562500
2088.676758	138246.484375
2087.724609	138595.328125
2086.772461	137802.125000
2085.819336	138883.203125
2084.867188	138460.234375
2083.914062	138315.515625
2082.960938	138821.421875
2082.007812	139091.093750
2081.054688	139268.875000
2080.101562	139082.156250
2079.147461	139377.828125
2078.194336	139539.734375
2077.240234	138600.921875
2076.286133	139069.453125
2075.331055	139726.437500
2074.376953	139445.500000
2073.421875	139607.218750
2072.467773	139496.578125
2071.512695	139579.687500
2070.557617	139610.421875
2069.602539	140025.828125
2068.646484	140127.109375
2067.691406	140121.078125
2066.735352	139393.156250
2065.779297	139635.687500
2064.823242	139930.421875
2063.867188	140844.640625
2062.910156	140054.328125
2061.954102	140427.234375
2060.997070	139937.750000
2060.040039	140522.125000
2059.083008	140560.406250
2058.125977	140530.750000
2057.167969	140668.218750
2056.209961	140878.734375
2055.252930	141611.203125
2054.294922	140542.718750
2053.336914	141126.250000
2052.377930	140206.906250
2051.419922	140852.875000
2050.460938	141313.468750
2049.501953	141460.984375
2048.542969	141115.750000
2047.583984	141067.750000
2046.625000	140391.718750
2045.665039	141151.593750
2044.706055	140830.062500
2043.746094	142269.437500
2042.786133	141304.562500
2041.826172	141621.078125
2040.865234	141932.296875
2039.905273	141441.687500
2038.944336	141729.390625
2037.983398	140916.328125
2037.022461	141669.687500
2036.061523	141543.593750
2035.100586	140957.234375
2034.138672	141793.375000
2033.176758	141794.718750
2032.215820	142071.562500
2031.253906	142395.093750
2030.291016	142417.078125
2029.329102	142187.062500
2028.366211	141933.750000
2027.404297	142025.921875
2026.441406	142375.109375
2025.478516	142238.703125
2024.514648	141879.109375
2023.551758	141784.343750
2022.587891	141495.000000
2021.625000	142850.531250
2020.661133	141769.968750
2019.696289	142995.312500
2018.732422	142978.203125
2017.768555	143020.718750
2016.803711	142451.484375
2015.838867	143002.015625
2014.874023	142484.796875
2013.909180	143216.468750
2012.944336	143453.140625
2011.978516	142757.406250
2011.013672	142680.750000
2010.047852	143751.015625
2009.082031	143130.625000
2008.116211	142849.484375
2007.149414	143445.609375
2006.183594	143728.484375
2005.216797	143760.359375
2004.250000	143298.250000
2003.283203	143979.187500
2002.316406	143263.828125
2001.349609	143724.812500
2000.381836	143953.046875
1999.414062	143829.765625
1998.446289	142884.984375
1997.478516	143529.093750
1996.510742	144059.328125
1995.542969	143959.343750
1994.574219	143732.875000
1993.605469	143478.093750
1992.636719	144018.265625
1991.667969	143353.250000
1990.699219	144138.343750
1989.729492	143666.968750
1988.760742	143662.546875
1987.791016	143578.187500
1986.821289	144138.375000
1985.851562	143840.015625
1984.880859	144209.250000
1983.911133	144467.531250
1982.940430	144504.171875
1981.969727	144203.359375
1980.999023	143652.828125
1980.028320	144943.562500
1979.057617	144712.312500
1978.085938	144179.984375
1977.115234	144221.750000
1976.143555	144513.078125
1975.171875	144616.500000
1974.199219	144753.328125
1973.227539	144115.968750
1972.254883	144903.375000
1971.283203	144993.781250
1970.310547	145680.484375
1969.337891	145184.750000
1968.364258	145488.312500
1967.391602	144787.250000
1966.417969	144851.875000
1965.444336	144328.359375
1964.470703	145101.734375
1963.497070	145107.218750
1962.523438	145813.437500
1961.548828	144866.640625
1960.575195	145554.687500
1959.600586	145442.046875
1958.625977	145578.250000
1957.651367	145796.453125
1956.675781	145194.062500
1955.701172	146348.015625
1954.725586	145835.437500
1953.750000	144864.281250
1952.774414	145279.703125
1951.798828	145587.375000
1950.822266	145395.453125
1949.846680	145841.281250
1948.870117	145103.953125
1947.893555	145373.015625
1946.916992	145416.734375
1945.940430	145291.515625
1944.962891	146399.671875
1943.986328	146136.156250
1943.008789	145980.171875
1942.031250	145688.687500
1941.053711	146550.500000
1940.075195	146046.812500
1939.097656	145944.593750
1938.119141	146259.000000
1937.140625	146233.421875
1936.162109	146115.890625
1935.183594	145413.437500
1934.205078	145934.546875
1933.225586	146317.593750
1932.246094	145837.562500
1931.266602	146149.000000
1930.287109	146317.406250
1929.307617	146205.062500
1928.328125	145784.062500
1927.347656	146113.109375
1926.367188	145886.078125
1925.386719	146135.953125
1924.406250	145590.312500
1923.425781	146426.390625
1922.444336	146380.390625
1921.463867	145990.406250
1920.482422	146224.718750
1919.500977	146497.156250
1918.518555	145636.187500
1917.537109	146168.343750
1916.555664	146046.031250
1915.573242	145862.656250
1914.590820	145574.984375
1913.608398	146595.312500
1912.625977	146287.265625
1911.642578	146236.218750
1910.660156	145869.828125
1909.676758	146136.718750
1908.693359	145821.312500
1907.709961	146708.296875
1906.725586	145988.812500
1905.742188	145874.312500
1904.757812	146527.093750
1903.773438	146722.421875
1902.789062	145985.625000
1901.804688	145828.031250
1900.820312	145589.234375
1899.834961	145624.656250
1898.849609	146167.625000
1897.865234	146144.562500
1896.878906	145406.078125
1895.893555	146691.984375
1894.908203	146346.734375
1893.921875	146387.031250
1892.935547	146181.375000
1891.949219	146170.968750
1890.962891	146383.578125
1889.976562	146213.500000
1888.989258	146111.875000
1888.002930	146800.562500
1887.015625	146078.390625
1886.028320	145984.421875
1885.041016	146601.875000
1884.052734	146133.218750
1883.065430	147200.890625
1882.077148	146276.828125
1881.088867	146979.781250
1880.100586	146589.781250
1879.112305	146761.328125
1878.123047	147261.531250
1877.134766	146525.328125
1876.145508	146959.656250
1875.156250	146264.171875
1874.166992	146774.203125
1873.176758	146634.781250
1872.187500	147210.218750
1871.197266	146893.968750
1870.207031	146855.578125
1869.216797	145804.843750
1868.226562	147159.953125
1867.236328	146089.343750
1866.245117	146916.562500
1865.253906	147266.671875
1864.262695	146524.500000
1863.271484	146819.062500
1862.280273	146571.406250
1861.289062	147017.109375
1860.296875	146640.953125
1859.304688	146993.234375
1858.312500	147572.156250
1857.320312	147085.234375
1856.328125	146878.062500
1855.334961	146507.265625
1854.341797	147126.140625
1853.348633	146997.093750
1852.355469	147260.734375
1851.362305	147602.296875
1850.369141	147319.734375
1849.375000	147844.812500
1848.380859	147874.171875
1847.386719	147468.468750
1846.392578	147196.171875
1845.398438	147406.625000
1844.403320	147800.484375
1843.409180	146987.937500
1842.414062	147916.906250
1841.418945	147612.078125
1840.422852	148020.671875
1839.427734	147861.562500
1838.431641	147710.046875
1837.436523	147704.171875
1836.440430	147020.609375
1835.444336	147418.890625
1834.447266	147832.062500
1833.451172	148064.484375
1832.454102	147496.687500
1831.457031	148198.015625
1830.459961	147846.015625
1829.462891	148381.562500
1828.465820	147395.515625
1827.467773	147392.156250
1826.469727	148498.750000
1825.472656	148880.984375
1824.473633	148216.109375
1823.475586	148455.500000
1822.477539	148133.953125
1821.478516	148120.421875
1820.479492	148567.421875
1819.480469	147945.703125
1818.481445	148397.562500
1817.482422	148346.453125
1816.482422	148292.843750
1815.483398	148559.343750
1814.483398	148185.671875
1813.483398	148394.593750
1812.482422	147401.218750
1811.482422	148297.390625
1810.481445	148741.015625
1809.480469	147750.593750
1808.480469	148593.765625
1807.478516	149129.484375
1806.477539	149158.171875
1805.476562	148717.531250
1804.474609	148521.640625
1803.472656	148595.312500
1802.470703	148619.062500
1801.468750	148470.671875
1800.465820	148965.796875
1799.463867	148779.984375
1798.460938	148245.171875
1797.458008	148465.843750
1796.455078	148678.968750
1795.451172	148936.875000
1794.448242	148614.156250
1793.444336	148759.875000
1792.440430	148484.609375
1791.436523	148550.593750
1790.432617	148900.390625
1789.428711	148167.203125
1788.423828	148927.578125
1787.418945	147856.203125
1786.414062	147969.484375
1785.409180	148179.734375
1784.404297	148882.343750
1783.398438	148346.343750
1782.393555	148014.406250
1781.387695	147568.234375
1780.381836	148553.750000
1779.375977	148445.578125
1778.369141	148245.500000
1777.363281	148179.625000
1776.356445	148163.437500
1775.349609	148422.890625
1774.342773	147855.500000
1773.335938	148154.609375
1772.328125	147495.625000
1771.320312	148231.406250
1770.312500	147567.671875
1769.304688	148811.671875
1768.296875	147771.078125
1767.289062	148102.093750
1766.280273	147758.640625
1765.271484	147801.984375
1764.263672	148279.015625
1763.253906	147739.937500
1762.245117	147661.859375
1761.236328	147702.687500
1760.226562	147671.671875
1759.216797	148326.562500
1758.207031	148099.859375
1757.197266	147467.296875
1756.186523	147763.000000
1755.176758	148036.328125
1754.166016	147233.390625
1753.155273	147806.000000
1752.144531	147324.859375
1751.133789	146791.968750
1750.122070	147517.609375
1749.110352	146843.968750
1748.099609	148204.484375
1747.086914	147711.312500
1746.075195	147460.421875
1745.063477	147283.718750
1744.050781	146610.671875
1743.038086	147631.718750
1742.025391	147102.031250
1741.012695	147789.390625
1740.000000	147311.671875
1738.986328	146634.265625
1737.973633	147429.875000
1736.959961	147287.906250
1735.946289	147449.312500
1734.932617	147201.359375
1733.917969	147029.906250
1732.903320	147728.593750
1731.889648	147108.578125
1730.875000	147131.859375
1729.860352	147357.156250
1728.844727	147747.375000
1727.830078	147339.562500
1726.814453	147572.046875
1725.798828	147548.437500
1724.783203	147529.750000
1723.767578	146792.468750
1722.750977	146995.343750
1721.735352	147166.171875
1720.718750	147639.453125
1719.702148	146600.187500
1718.685547	146707.031250
1717.667969	147003.140625
1716.651367	147080.375000
1715.633789	147538.484375
1714.616211	147586.093750
1713.598633	147110.453125
1712.581055	147234.265625
1711.562500	147102.625000
1710.543945	147346.687500
1709.526367	148039.890625
1708.506836	148494.765625
1707.488281	148269.734375
1706.469727	147995.703125
1705.450195	147461.734375
1704.431641	147254.140625
1703.412109	147806.812500
1702.391602	148106.750000
1701.372070	148036.421875
1700.352539	148120.515625
1699.332031	147636.062500
1698.311523	147607.484375
1697.291016	147992.890625
1696.270508	147190.312500
1695.249023	147641.765625
1694.228516	148230.156250
1693.207031	147276.171875
1692.185547	148473.828125
1691.164062	147576.406250
1690.141602	147447.515625
1689.120117	148025.609375
1688.097656	148033.640625
1687.075195	147371.656250
1686.052734	147768.515625
1685.030273	147703.234375
1684.006836	147315.375000
1682.984375	147411.453125
1681.960938	147761.593750
1680.937500	148077.390625
1679.913086	147254.984375
1678.889648	147873.546875
1677.865234	146604.687500
1676.841797	147184.062500
1675.817383	147997.531250
1674.792969	147622.375000
1673.767578	148006.078125
1672.743164	148016.437500
1671.717773	147548.781250
1670.692383	147273.921875
1669.666992	148159.609375
1668.641602	148186.968750
1667.615234	147626.984375
1666.589844	147893.218750
1665.563477	147998.546875
1664.537109	147331.703125
1663.510742	147361.609375
1662.483398	146736.484375
1661.457031	147842.500000
1660.429688	146896.218750
1659.402344	147373.921875
1658.375000	146520.515625
1657.347656	147526.015625
1656.319336	146753.125000
1655.291016	146945.968750
1654.263672	146231.812500
1653.235352	146665.328125
1652.206055	146785.140625
1651.177734	146520.953125
1650.148438	146545.984375
1649.119141	147059.281250
1648.089844	147004.046875
1647.060547	146222.718750
1646.031250	146344.875000
1645.000977	145979.046875
1643.971680	146814.781250
1642.941406	146953.734375
1641.911133	146355.046875
1640.879883	145858.468750
1639.849609	145301.406250
1638.818359	145874.578125
1637.787109	145872.937500
1636.755859	145539.171875
1635.724609	145062.531250
1634.692383	145979.421875
1633.661133	145466.515625
1632.628906	145794.343750
1631.596680	146175.343750
1630.564453	145209.828125
1629.531250	145302.671875
1628.499023	145102.578125
1627.465820	145224.437500
1626.432617	145271.250000
1625.399414	144969.625000
1624.366211	144951.125000
1623.332031	144869.750000
1622.298828	145412.265625
1621.264648	144890.812500
1620.230469	145433.109375
1619.195312	144616.968750
1618.161133	145149.453125
1617.125977	144360.218750
1616.091797	144310.406250
1615.056641	144789.515625
1614.020508	144452.296875
1612.985352	144677.687500
1611.949219	145113.015625
1610.914062	144165.312500
1609.877930	143826.000000
1608.841797	144625.500000
1607.804688	144153.546875
1606.768555	144453.500000
1605.731445	144741.265625
1604.694336	144525.078125
1603.657227	144133.000000
1602.620117	144936.390625
1601.582031	143773.312500
1600.544922	144757.156250
1599.506836	144389.375000
1598.468750	144320.343750
1597.430664	144077.968750
1596.391602	144069.187500
1595.353516	143694.546875
1594.314453	143830.203125
1593.275391	143140.531250
1592.236328	143952.234375
1591.196289	143654.828125
1590.157227	144425.250000
1589.117188	143959.546875
1588.077148	144109.421875
1587.037109	143980.406250
1585.997070	144300.828125
1584.956055	143715.328125
1583.916016	144086.109375
1582.875000	144403.906250
1581.833984	143127.078125
1580.792969	144033.171875
1579.750977	143789.078125
1578.708984	143648.265625
1577.667969	144592.156250
1576.625977	143671.484375
1575.583008	143849.796875
1574.541016	144356.609375
1573.499023	144448.406250
1572.456055	143799.312500
1571.413086	144195.593750
1570.370117	144208.250000
1569.326172	144513.234375
1568.283203	143069.156250
1567.239258	143927.578125
1566.195312	144342.609375
1565.151367	144300.125000
1564.107422	143774.031250
1563.062500	144193.640625
1562.018555	144529.328125
1560.973633	143646.921875
1559.928711	144152.437500
1558.883789	143755.984375
1557.837891	144191.921875
1556.791992	144390.984375
1555.747070	143552.406250
1554.701172	144021.593750
1553.654297	144077.171875
1552.608398	144483.968750
1551.561523	144807.000000
1550.515625	144900.609375
1549.468750	145001.343750
1548.421875	143464.046875
1547.374023	144283.562500
1546.327148	144458.328125
1545.279297	144298.906250
1544.231445	144108.531250
1543.183594	143891.984375
1542.135742	144169.218750
1541.086914	143964.640625
1540.039062	144268.000000
1538.990234	143558.078125
1537.941406	144192.671875
1536.891602	143318.578125
1535.842773	143702.812500
1534.792969	144058.312500
1533.743164	144232.671875
1532.693359	144402.203125
1531.643555	143985.953125
1530.593750	143976.906250
1529.542969	144101.156250
1528.492188	143549.531250
1527.441406	144318.546875
1526.390625	144311.812500
1525.339844	144250.375000
1524.288086	143815.609375
1523.237305	143145.609375
1522.185547	143393.406250
1521.132812	143541.296875
1520.081055	143187.734375
1519.029297	143174.046875
1517.976562	143875.343750
1516.923828	143469.640625
1515.871094	143273.046875
1514.818359	143458.734375
1513.764648	142996.343750
1512.710938	142892.484375
1511.658203	143113.718750
1510.603516	142779.734375
1509.549805	143060.203125
1508.496094	143157.953125
1507.441406	142655.765625
1506.386719	143258.515625
1505.332031	143014.843750
1504.277344	142515.296875
1503.222656	142646.203125
1502.166992	142251.125000
1501.111328	142450.718750
1500.055664	142152.906250
1499.000000	142054.078125
1497.944336	142071.296875
1496.887695	142294.406250
1495.831055	141774.375000
1494.774414	141902.812500
1493.717773	142300.875000
1492.661133	142140.609375
1491.603516	142141.187500
1490.546875	142233.984375
1489.489258	142409.468750
1488.430664	141800.203125
1487.373047	140900.484375
1486.315430	141725.843750
1485.256836	140923.296875
1484.198242	141469.640625
1483.139648	141961.468750
1482.081055	141397.765625
1481.021484	141197.765625
1479.962891	141644.531250
1478.903320	140941.937500
1477.843750	141428.671875
1476.783203	140917.421875
1475.723633	140852.093750
1474.663086	140826.890625
1473.602539	140391.437500
1472.541992	140750.531250
1471.481445	141024.640625
1470.420898	140360.812500
1469.359375	140828.062500
1468.297852	140425.953125
1467.236328	140695.187500
1466.174805	140507.515625
1465.113281	140731.906250
1464.050781	140158.250000
1462.988281	140295.531250
1461.925781	140378.625000
1460.863281	139553.609375
1459.800781	140485.921875
1458.737305	139992.750000
1457.673828	140021.750000
1456.610352	140697.218750
1455.546875	139896.359375
1454.483398	139796.078125
1453.418945	139134.281250
1452.355469	139654.343750
1451.291016	139302.843750
1450.226562	139810.937500
1449.161133	139414.906250
1448.096680	139352.343750
1447.031250	139144.296875
1445.965820	139713.046875
1444.900391	139474.484375
1443.834961	139562.078125
1442.768555	138882.687500
1441.703125	138907.015625
1440.636719	138785.968750
1439.570312	139117.390625
1438.502930	139336.187500
1437.436523	139133.093750
1436.369141	138334.984375
1435.301758	138469.453125
1434.234375	138617.921875
1433.166992	138447.875000
1432.098633	138057.796875
1431.031250	138824.218750
1429.962891	139183.109375
1428.894531	138842.250000
1427.826172	138971.734375
1426.756836	137795.953125
1425.688477	138636.531250
1424.619141	137945.250000
1423.549805	137677.343750
1422.479492	137676.000000
1421.410156	137840.578125
1420.339844	138507.453125
1419.270508	137765.390625
1418.200195	138686.625000
1417.128906	137575.796875
1416.058594	137467.031250
1414.987305	137750.500000
1413.916992	137604.390625
1412.845703	138090.734375
1411.773438	136834.000000
1410.702148	137371.609375
1409.629883	137906.703125
1408.558594	137133.375000
1407.486328	137031.796875
1406.413086	136790.375000
1405.340820	138026.703125
1404.267578	136722.578125
1403.195312	136868.093750
1402.122070	136757.296875
1401.048828	137345.265625
1399.974609	136782.656250
1398.901367	136657.968750
1397.827148	136524.000000
1396.752930	137009.140625
1395.678711	135960.656250
1394.603516	136534.125000
1393.529297	136172.296875
1392.454102	136608.296875
1391.378906	136632.562500
1390.303711	136512.671875
1389.228516	137113.390625
1388.152344	136149.828125
1387.076172	135700.125000
1386.000000	135998.640625
1384.923828	136234.328125
1383.847656	135945.078125
1382.770508	136424.468750
1381.694336	136334.921875
1380.617188	135753.343750
1379.540039	135494.531250
1378.461914	136154.625000
1377.384766	136074.437500
1376.306641	135488.656250
1375.228516	135461.953125
1374.150391	136026.484375
1373.072266	134991.281250
1371.993164	135766.609375
1370.914062	135519.703125
1369.834961	134904.500000
1368.755859	134590.656250
1367.676758	135689.718750
1366.597656	135287.828125
1365.517578	134696.234375
1364.437500	134905.781250
1363.357422	135013.406250
1362.276367	134577.203125
1361.196289	134629.312500
1360.115234	134468.578125
1359.034180	134948.546875
1357.953125	134343.843750
1356.872070	134497.656250
1355.790039	134727.687500
1354.708984	134601.734375
1353.626953	134371.828125
1352.544922	134488.546875
1351.461914	134413.484375
1350.379883	134192.968750
1349.296875	134009.468750
1348.213867	134363.921875
1347.130859	134284.312500
1346.047852	134368.562500
1344.963867	133781.359375
1343.880859	134458.546875
1342.796875	133901.500000
1341.712891	133450.734375
1340.627930	134125.296875
1339.543945	134446.890625
1338.458984	133376.250000
1337.374023	134004.359375
1336.289062	134311.968750
1335.204102	133824.718750
1334.118164	133883.500000
1333.033203	133527.750000
1331.947266	133708.578125
1330.861328	133074.453125
1329.774414	134040.093750
1328.688477	132655.953125
1327.601562	133579.906250
1326.514648	133360.281250
1325.427734	132936.046875
1324.340820	133558.203125
1323.252930	133968.609375
1322.165039	132905.468750
1321.077148	132810.234375
1319.989258	133238.921875
1318.901367	132955.265625
1317.813477	133613.468750
1316.724609	133116.265625
1315.635742	132015.343750
1314.546875	133072.796875
1313.457031	132975.312500
1312.368164	133004.078125
1311.278320	132273.375000
1310.188477	132352.718750
1309.098633	131998.531250
1308.008789	132437.921875
1306.917969	131551.906250
1305.827148	131993.500000
1304.737305	131873.390625
1303.645508	131402.718750
1302.554688	131383.562500
1301.462891	131708.015625
1300.372070	131714.000000
1299.280273	131758.890625
1298.188477	131490.109375
1297.095703	131031.421875
1296.003906	131099.281250
1294.911133	130826.179688
1293.818359	130500.539062
1292.725586	130417.476562
1291.631836	130489.953125
1290.539062	129844.414062
1289.445312	130691.976562
1288.351562	130240.906250
1287.257812	129949.968750
1286.164062	130118.414062
1285.069336	129491.765625
1283.974609	129927.460938
1282.879883	129833.164062
1281.785156	129875.898438
1280.690430	129478.015625
1279.594727	129386.125000
1278.499023	128979.335938
1277.403320	129943.953125
1276.307617	128987.421875
1275.211914	128323.179688
1274.115234	129262.289062
1273.018555	128739.585938
1271.921875	128944.250000
1270.825195	128476.476562
1269.728516	127981.523438
1268.630859	128111.015625
1267.533203	128240.445312
1266.435547	128076.031250
1265.337891	128184.921875
1264.239258	127886.234375
1263.141602	128247.773438
1262.042969	127207.242188
1260.944336	127434.515625
1259.845703	127609.367188
1258.746094	127784.156250
1257.647461	127219.750000
1256.547852	127526.414062
1255.448242	127416.929688
1254.347656	127559.781250
1253.248047	127338.960938
1252.147461	127168.203125
1251.046875	127538.179688
1249.946289	126656.515625
1248.845703	127348.906250
1247.744141	126667.382812
1246.643555	126778.367188
1245.541992	127461.273438
1244.440430	126339.843750
1243.337891	126884.164062
1242.236328	127058.523438
1241.133789	126439.000000
1240.031250	126624.703125
1238.928711	126470.257812
1237.826172	126438.265625
1236.722656	125395.460938
1235.619141	126288.187500
1234.515625	126360.445312
1233.412109	125465.445312
1232.308594	125755.234375
1231.204102	126595.140625
1230.100586	126035.632812
1228.996094	125754.734375
1227.890625	125571.242188
1226.786133	125718.171875
1225.680664	126055.070312
1224.576172	125686.140625
1223.470703	125982.203125
1222.364258	125574.968750
1221.258789	125459.500000
1220.152344	125316.945312
1219.046875	124781.218750
1217.940430	125266.945312
1216.833008	125115.453125
1215.726562	124925.609375
1214.619141	125368.125000
1213.511719	124828.335938
1212.404297	125365.507812
1211.296875	125051.601562
1210.189453	125981.164062
1209.081055	125637.921875
1207.972656	125085.015625
1206.864258	124599.960938
1205.755859	124836.648438
1204.646484	125161.179688
1203.537109	125760.578125
1202.427734	124732.593750
1201.318359	124917.242188
1200.208984	125040.992188
1199.098633	125275.054688
1197.989258	125029.343750
1196.878906	125441.203125
1195.768555	124682.257812
1194.657227	124421.015625
1193.546875	125102.789062
1192.435547	125525.562500
1191.324219	124839.117188
1190.212891	124503.796875
1189.100586	124827.484375
1187.989258	124676.640625
1186.876953	124703.429688
1185.764648	124853.828125
1184.652344	124752.476562
1183.539062	124543.320312
1182.426758	125127.187500
1181.313477	124902.304688
1180.200195	124504.593750
1179.086914	123936.398438
1177.972656	123996.914062
1176.858398	123990.070312
1175.744141	124432.007812
1174.629883	124068.367188
1173.515625	124169.171875
1172.401367	123610.593750
1171.286133	123810.085938
1170.170898	123460.257812
1169.055664	123419.859375
1167.939453	123964.382812
1166.824219	122989.570312
1165.708008	123336.828125
1164.591797	123645.867188
1163.475586	123746.539062
1162.359375	123623.257812
1161.242188	123332.132812
1160.125000	122960.531250
1159.007812	123569.195312
1157.890625	123182.015625
1156.773438	123184.195312
1155.655273	122817.343750
1154.537109	122647.398438
1153.418945	122388.078125
1152.300781	122998.382812
1151.181641	122301.046875
1150.063477	122584.898438
1148.944336	122419.593750
1147.825195	122046.609375
1146.706055	122127.109375
1145.585938	122046.804688
1144.465820	122011.179688
1143.345703	122319.296875
1142.225586	121806.046875
1141.105469	121975.742188
1139.984375	121596.585938
1138.864258	122138.726562
1137.743164	121162.015625
1136.622070	121987.195312
1135.500000	121630.578125
1134.378906	121118.070312
1133.256836	121325.515625
1132.134766	121517.289062
1131.011719	121020.664062
1129.889648	120733.562500
1128.766602	120357.492188
1127.644531	121528.890625
1126.520508	120785.515625
1125.397461	120598.796875
1124.274414	121113.070312
1123.150391	121084.304688
1122.026367	120283.703125
1120.902344	120479.710938
1119.778320	120382.132812
1118.653320	120193.437500
1117.528320	119887.007812
1116.404297	120456.273438
1115.278320	120338.750000
1114.153320	120074.648438
1113.027344	120325.937500
1111.902344	119895.375000
1110.776367	119358.382812
1109.649414	119998.125000
1108.523438	120460.078125
1107.396484	120236.156250
1106.269531	119890.281250
1105.142578	119910.539062
1104.015625	119799.937500
1102.888672	120057.468750
1101.760742	120117.578125
1100.632812	119326.468750
1099.504883	119544.031250
1098.376953	119814.695312
1097.248047	119646.593750
1096.119141	119830.742188
1094.990234	119299.492188
1093.861328	119581.054688
1092.732422	119182.859375
1091.602539	118587.812500
1090.473633	119316.359375
1089.343750	119484.843750
1088.212891	119447.531250
1087.083008	118768.804688
1085.952148	119226.968750
1084.821289	119083.578125
1083.690430	119718.359375
1082.559570	118953.859375
1081.428711	118967.476562
1080.296875	118757.937500
1079.165039	119023.390625
1078.033203	119063.476562
1076.900391	118871.679688
1075.768555	118752.804688
1074.635742	118929.757812
1073.502930	118934.492188
1072.370117	118839.929688
1071.237305	118891.000000
1070.103516	118924.398438
1068.969727	119218.015625
1067.835938	118812.546875
1066.702148	118854.750000
1065.567383	119311.304688
1064.433594	118330.859375
1063.298828	118732.250000
1062.164062	118432.960938
1061.028320	118281.343750
1059.893555	118722.140625
1058.757812	118621.156250
1057.622070	118352.898438
1056.486328	118553.531250
1055.350586	118831.101562
1054.213867	118334.132812
1053.077148	118470.851562
1051.940430	118653.695312
1050.803711	118031.679688
1049.666992	118476.148438
1048.529297	118465.445312
1047.391602	118081.140625
1046.253906	118259.468750
1045.116211	118244.406250
1043.977539	117750.507812
1042.838867	117909.023438
1041.701172	117988.429688
1040.561523	117565.085938
1039.422852	117569.882812
1038.283203	117611.984375
1037.144531	117485.125000
1036.004883	118007.625000
1034.864258	117523.234375
1033.724609	117848.164062
1032.583984	117506.476562
1031.444336	117335.882812
1030.302734	117465.601562
1029.162109	117652.242188
1028.021484	116966.851562
1026.879883	117506.164062
1025.738281	117357.601562
1024.596680	117241.937500
1023.455078	116900.812500
1022.312500	116691.140625
1021.169922	116989.257812
1020.027344	117015.945312
1018.884766	116519.765625
1017.742188	117172.070312
1016.598633	116540.453125
1015.455078	116790.195312
1014.311523	117070.445312
1013.167969	116316.789062
1012.023438	116885.460938
1010.878906	116407.390625
1009.734375	116545.500000
1008.589844	116991.492188
1007.445312	117129.429688
1006.299805	116049.078125
1005.155273	116946.750000
1004.009766	116580.468750
1002.863281	116960.562500
1001.717773	116411.140625
1000.571289	117181.554688
999.424805	116503.625000
998.278320	115980.742188
997.131836	115817.742188
995.984375	116541.914062
994.837891	116391.937500
993.690430	116442.468750
992.542969	115745.781250
991.394531	115367.328125
990.247070	115931.921875
989.098633	115941.109375
987.950195	116318.171875
986.801758	115308.710938
985.652344	115761.898438
984.502930	116360.687500
983.354492	116013.023438
982.204102	115763.351562
981.054688	116596.632812
979.905273	115549.070312
978.754883	115808.234375
977.604492	115728.273438
976.454102	115928.632812
975.302734	116348.328125
974.152344	115901.226562
973.000977	115771.335938
971.849609	115719.656250
970.697266	115778.703125
969.545898	115846.406250
968.393555	115818.593750
967.241211	115667.125000
966.088867	115680.562500
964.936523	116114.742188
963.783203	115883.046875
962.629883	115696.968750
961.476562	115441.585938
960.323242	115329.320312
959.169922	115542.125000
958.015625	115386.554688
956.861328	115120.562500
955.707031	115660.281250
954.552734	115654.156250
953.397461	115180.421875
952.242188	115083.476562
951.086914	115224.601562
949.931641	114958.898438
948.776367	114855.539062
947.620117	115346.992188
946.463867	115715.000000
945.307617	114848.335938
944.151367	115099.562500
942.995117	114987.601562
941.837891	115080.953125
940.680664	115040.320312
939.523438	115116.335938
938.365234	114777.664062
937.208008	114257.734375
936.049805	114156.812500
934.891602	114578.273438
933.733398	114477.320312
932.574219	114566.273438
931.416016	114588.320312
930.256836	114647.007812
929.097656	114371.421875
927.937500	114772.945312
926.778320	114581.492188
925.618164	114086.210938
924.458008	113681.617188
923.297852	114205.757812
922.136719	114053.304688
920.976562	113928.906250
919.815430	114004.804688
918.654297	113523.062500
917.492188	113592.539062
916.331055	113707.179688
915.168945	114073.523438
914.006836	114278.382812
912.844727	114184.171875
911.682617	113451.289062
910.519531	113755.039062
909.356445	113213.820312
908.193359	113717.375000
907.030273	113019.484375
905.866211	112811.710938
904.703125	113100.234375
903.539062	113107.289062
902.374023	112818.000000
901.209961	112818.656250
900.044922	112782.812500
898.880859	112489.429688
897.715820	113517.960938
896.549805	112342.789062
895.384766	113051.351562
894.218750	112367.804688
893.052734	112666.546875
891.886719	112341.328125
890.720703	112605.664062
889.553711	112591.304688
888.386719	112465.523438
887.219727	112290.515625
886.052734	112181.968750
884.885742	112103.429688
883.717773	112044.187500
882.549805	112327.460938
881.381836	111786.640625
880.213867	112448.601562
879.044922	112579.726562
877.875977	111910.796875
876.707031	112016.304688
875.538086	112322.757812
874.368164	112329.796875
873.199219	111783.218750
872.029297	111982.679688
870.859375	111827.375000
869.688477	111960.523438
868.518555	112055.164062
867.347656	112564.054688
866.176758	111900.578125
865.005859	111830.796875
863.833984	111970.195312
862.663086	112073.257812
861.491211	112080.273438
860.319336	112179.000000
859.146484	111755.171875
857.974609	112229.203125
856.801758	112242.562500
855.628906	111838.117188
854.456055	111979.398438
853.282227	111600.718750
852.109375	112502.523438
850.935547	112439.109375
849.761719	112867.648438
848.586914	112467.765625
847.413086	112755.632812
846.238281	112098.375000
845.063477	112745.820312
843.888672	112205.820312
842.712891	111925.531250
841.538086	112255.742188
840.362305	112475.250000
839.186523	113051.843750
838.009766	112316.695312
836.833984	112074.875000
835.657227	112183.742188
834.480469	112942.648438
833.303711	112403.460938
832.125977	112756.406250
830.949219	112631.484375
829.771484	112115.992188
828.592773	111636.765625
827.415039	112375.796875
826.237305	112193.734375
825.058594	112732.976562
823.879883	112198.828125
822.700195	111902.367188
821.521484	112235.695312
820.341797	112651.562500
819.162109	112501.406250
817.982422	112374.609375
816.802734	112218.195312
815.622070	112036.414062
814.442383	112329.078125
813.260742	112350.601562
812.080078	112393.289062
810.899414	112209.468750
809.717773	112459.539062
808.536133	112512.742188
807.354492	111819.171875
806.172852	112103.000000
804.990234	111593.726562
803.807617	112046.625000
802.625000	111825.023438
801.442383	111909.953125
800.258789	111857.500000
799.076172	111817.734375
797.892578	112217.335938
796.708008	111991.664062
795.524414	111350.101562
794.339844	111726.328125
793.155273	112106.632812
791.970703	112125.921875
790.786133	111261.140625
789.601562	111588.562500
788.416016	111696.507812
787.230469	111623.054688
786.044922	111467.398438
784.858398	111545.781250
783.672852	111936.046875
782.486328	111428.500000
781.299805	111614.273438
780.112305	111707.296875
778.925781	111492.796875
777.738281	111585.796875
776.550781	111569.281250
775.363281	111140.218750
774.174805	111563.609375
772.986328	111406.125000
771.797852	111151.914062
770.609375	111204.882812
769.420898	111503.859375
768.231445	110755.671875
767.042969	111067.226562
765.853516	111069.703125
764.663086	111179.343750
763.473633	111171.289062
762.283203	111030.890625
761.092773	110838.039062
759.902344	110659.953125
758.710938	110591.093750
757.520508	110595.718750
756.329102	111160.664062
755.137695	111045.578125
753.946289	110670.398438
752.753906	111054.617188
751.561523	110666.984375
750.369141	110396.898438
749.176758	110456.023438
747.984375	111200.468750
746.791016	110165.570312
745.597656	110911.875000
744.404297	110346.617188
743.210938	110305.148438
742.016602	110215.523438
740.822266	110969.617188
739.627930	110540.804688
738.433594	110319.328125
737.238281	110489.203125
736.043945	110803.351562
734.848633	110542.195312
733.652344	110954.492188
732.457031	110340.046875
731.260742	110582.898438
730.065430	110146.390625
728.868164	110564.703125
727.671875	110094.929688
726.475586	110584.109375
725.278320	110429.851562
724.081055	110284.000000
722.883789	110568.257812
721.685547	110723.000000
720.487305	110011.601562
719.289062	110009.890625
718.090820	110216.781250
716.892578	110187.906250
715.693359	110403.015625
714.494141	109761.125000
713.294922	110659.968750
712.095703	110049.515625
710.896484	109847.718750
709.696289	109993.914062
708.496094	110444.179688
707.295898	110746.398438
706.094727	109934.492188
704.894531	109936.898438
703.693359	110771.890625
702.492188	110736.664062
701.290039	109969.046875
700.088867	110239.781250
698.886719	109982.109375
697.684570	110502.281250
696.481445	110205.140625
695.279297	110592.023438
694.076172	109461.539062
692.873047	109844.250000
691.669922	110511.437500
690.466797	109662.015625
689.262695	110412.054688
688.058594	110489.039062
686.854492	109737.656250
685.650391	109972.476562
684.445312	110574.539062
683.240234	110489.578125
682.035156	110265.648438
680.830078	109463.125000
679.624023	109575.414062
678.418945	109892.906250
677.212891	110351.242188
676.006836	109795.914062
674.799805	110537.968750
673.593750	109831.570312
672.386719	110248.117188
671.179688	110600.312500
669.971680	110128.257812
668.764648	109927.578125
667.556641	109838.734375
666.348633	109685.765625
665.140625	110679.125000
663.931641	110147.476562
662.722656	110339.929688
661.513672	109820.945312
660.304688	110091.945312
659.095703	109730.289062
657.885742	109085.617188
656.675781	109594.218750
655.465820	109245.242188
654.255859	109193.835938
653.044922	109532.773438
651.833984	109522.617188
650.623047	109434.015625
649.412109	109229.851562
648.200195	108854.468750
646.989258	109428.343750
645.777344	109366.617188
644.565430	109441.039062
643.352539	108843.171875
642.139648	109154.750000
640.927734	109027.140625
639.713867	108627.531250
638.500977	108619.570312
637.287109	108574.523438
636.074219	108751.945312
634.860352	108356.781250
633.645508	108960.390625
632.431641	108635.320312
631.216797	108870.210938
630.001953	108506.171875
628.787109	108278.046875
627.571289	108430.578125
626.356445	107990.703125
625.140625	108246.039062
623.924805	108616.398438
622.708008	108374.062500
621.491211	108719.593750
620.275391	108588.273438
619.058594	108927.460938
617.840820	108451.062500
616.624023	108648.429688
615.406250	109297.445312
614.188477	108819.179688
612.970703	108962.992188
611.751953	108837.921875
610.533203	108526.179688
609.314453	108345.835938
608.095703	108700.859375
606.876953	107948.437500
605.657227	107663.726562
604.437500	108006.367188
603.217773	107592.632812
601.998047	107906.453125
600.777344	108123.875000
599.556641	108142.515625
598.335938	108099.718750
597.115234	107657.664062
595.893555	107686.601562
594.672852	107580.445312
593.451172	107558.226562
592.228516	107883.820312
591.006836	107599.703125
589.784180	107810.632812
588.561523	107512.312500
587.338867	107596.406250
586.116211	107373.859375
584.892578	107746.101562
583.668945	108026.242188
582.445312	107413.531250
581.221680	107424.015625
579.997070	108092.054688
578.772461	107430.656250
577.547852	108071.890625
576.323242	107618.921875
575.097656	107700.750000
573.872070	108055.929688
572.646484	107297.218750
571.420898	107992.921875
570.195312	108060.328125
568.968750	107085.929688
567.742188	107004.671875
566.515625	107508.320312
565.289062	107471.828125
564.061523	107924.257812
562.833984	107533.296875
561.606445	107686.187500
560.377930	107055.156250
559.150391	107012.648438
557.921875	106947.765625
556.693359	107041.625000
555.464844	107300.234375
554.235352	107243.453125
553.005859	107290.414062
551.776367	106885.945312
550.546875	107010.195312
549.317383	106455.515625
548.086914	106880.554688
546.856445	106317.968750
545.625977	106732.703125
544.394531	107118.843750
543.164062	106836.742188
541.932617	106108.085938
540.700195	106025.210938
539.468750	105506.007812
538.236328	105985.328125
537.004883	106363.023438
535.771484	105401.859375
534.539062	105605.109375
533.306641	105751.500000
532.073242	105512.664062
530.839844	105103.664062
529.605469	105000.796875
528.372070	104976.984375
527.137695	105137.515625
525.903320	105413.421875
524.668945	104682.835938
523.433594	104916.195312
522.199219	105038.140625
520.963867	105083.125000
519.728516	105318.289062
518.492188	104946.453125
517.255859	104906.468750
516.020508	104670.328125
514.783203	105008.492188
513.546875	104962.437500
512.309570	104259.531250
511.072266	104231.812500
509.834961	104497.046875
508.597656	104463.218750
507.359375	104380.929688
506.122070	104464.250000
504.883789	104123.570312
503.644531	104325.976562
502.406250	104619.125000
501.166992	104516.679688
499.927734	104357.789062
498.688477	105142.875000
497.448242	104407.179688
496.208984	104169.750000
494.968750	104680.265625
493.727539	104382.406250
492.487305	104348.617188
491.246094	104095.242188
490.004883	104218.632812
488.763672	104525.226562
487.522461	104002.132812
486.280273	103950.312500
485.038086	103737.476562
483.795898	104780.445312
482.553711	104140.984375
481.310547	104308.421875
480.067383	104156.000000
478.824219	104240.914062
477.581055	104134.789062
476.336914	104167.406250
475.092773	103763.890625
473.848633	104525.937500
472.604492	103863.343750
471.360352	103825.664062
470.115234	104077.171875
468.870117	104059.531250
467.625000	103957.585938
466.378906	104485.882812
465.132812	104297.593750
463.886719	103944.851562
462.640625	104382.578125
461.394531	103047.218750
460.147461	103962.171875
458.900391	103411.265625
457.653320	103455.875000
456.405273	103304.062500
455.158203	102895.835938
453.910156	103749.828125
452.662109	103487.875000
451.413086	103640.539062
450.165039	103004.296875
448.916016	102992.835938
447.666992	102647.148438
446.416992	102721.789062
445.167969	102762.398438
443.917969	102794.976562
442.667969	102889.539062
441.416992	102736.125000
440.166992	101891.062500
438.916016	102233.570312
437.665039	102134.304688
436.414062	101797.312500
435.162109	101788.046875
433.910156	101575.062500
432.658203	102186.859375
431.406250	101724.312500
430.154297	101565.343750
428.901367	101316.625000
427.648438	100918.343750
426.395508	101996.476562
425.141602	101775.726562
423.888672	101475.281250
422.634766	101970.484375
421.379883	101582.398438
420.125977	101854.164062
418.871094	101677.460938
417.616211	102124.421875
416.361328	102164.843750
415.106445	102617.507812
413.850586	102140.101562
412.594727	102303.921875
411.338867	102230.804688
410.083008	102304.984375
408.826172	101825.992188
407.569336	101888.265625
406.312500	101618.367188
405.055664	100928.976562
403.797852	100959.562500
402.540039	100906.640625
401.282227	100331.046875
400.024414	100194.804688
398.765625	100318.859375
397.506836	100041.632812
396.248047	100243.109375
394.989258	99902.453125
393.729492	100258.718750
392.469727	100473.921875
391.209961	100204.835938
389.950195	100193.781250
388.690430	100575.484375
387.429688	100766.648438
386.168945	99938.515625
384.907227	99812.507812
383.646484	99813.398438
382.384766	100200.742188
381.123047	100326.375000
379.861328	99784.359375
378.598633	99391.085938
377.336914	99229.656250
376.074219	99856.281250
374.810547	99676.992188
373.547852	99493.812500
372.284180	99433.382812
371.020508	98848.687500
369.756836	98984.218750
368.493164	99145.398438
367.228516	98383.125000
365.963867	98271.539062
364.699219	98881.421875
363.433594	98364.664062
362.167969	98193.851562
360.903320	98094.218750
359.636719	98281.000000
358.371094	97790.390625
357.104492	97702.726562
355.837891	97808.523438
354.571289	97499.843750
353.304688	98035.781250
352.037109	97218.187500
350.769531	97339.757812
349.501953	96883.476562
348.234375	96833.523438
346.965820	97355.257812
345.697266	97315.078125
344.428711	96413.789062
343.159180	97220.960938
341.890625	96440.187500
340.621094	96681.812500
339.351562	96129.835938
338.081055	96534.820312
336.811523	96449.546875
335.541016	96771.664062
334.270508	96263.343750
332.999023	96117.179688
331.728516	96309.351562
330.457031	96096.359375
329.185547	96306.148438
327.913086	95926.148438
326.641602	96183.046875
325.369141	95854.289062
324.096680	96128.773438
322.824219	95762.828125
321.550781	95860.476562
320.277344	95661.601562
319.003906	95600.210938
317.730469	95293.507812
316.456055	95799.312500
315.181641	95655.515625
313.907227	95649.078125
312.632812	95572.039062
311.357422	95698.945312
310.082031	96027.718750
308.806641	96046.679688
307.531250	96087.187500
306.254883	96225.632812
304.979492	96724.476562
303.702148	96643.382812
302.425781	97098.859375
301.149414	97346.625000
299.872070	97335.914062
298.594727	97571.796875
297.316406	97598.210938
296.039062	98371.929688
294.760742	99475.906250
293.482422	99691.625000
292.204102	98712.625000
290.924805	96834.765625
289.645508	95424.734375
288.366211	95027.453125
287.086914	94358.750000
285.806641	94243.101562
284.526367	93598.226562
283.246094	93010.226562
281.965820	93101.820312
280.684570	92738.593750
279.404297	92404.765625
278.122070	92420.312500
276.840820	91854.531250
275.559570	92759.539062
274.277344	91786.351562
272.995117	91903.367188
271.711914	91856.601562
270.429688	91659.781250
269.146484	91348.070312
267.863281	91911.187500
266.580078	91272.312500
265.295898	91175.054688
264.011719	91044.726562
262.727539	90965.054688
261.443359	90684.945312
260.158203	91212.492188
258.873047	90593.914062
257.587891	90697.218750
256.302734	90565.164062
255.016602	90063.710938
253.730469	90524.750000
252.444336	90561.890625
251.158203	89944.117188
249.871094	90836.234375
248.584961	89913.648438
247.297852	90461.656250
246.009766	90826.914062
244.722656	89679.640625
243.434570	89901.257812
242.146484	89468.773438
240.857422	89793.179688
239.569336	89828.398438
238.280273	89747.234375
236.991211	89369.382812
235.701172	89606.296875
234.412109	89990.437500
233.122070	89946.101562
231.832031	89396.031250
230.541016	90560.742188
229.250977	91928.382812
227.959961	92883.000000
226.668945	92712.273438
225.376953	91203.906250
224.085938	90234.187500
222.793945	88548.828125
221.501953	88783.414062
220.208984	88070.046875
218.916992	87525.203125
217.624023	87852.656250
216.331055	87588.390625
215.037109	86763.664062
213.743164	86982.835938
212.450195	86537.242188
211.155273	86346.820312
209.861328	86679.890625
208.566406	85597.343750
207.271484	86162.101562
205.976562	85948.718750
204.681641	85837.695312
203.385742	85994.929688
202.089844	85073.648438
200.793945	85205.882812
199.497070	85112.429688
198.201172	84635.304688
196.904297	84597.898438
195.607422	84308.000000
194.309570	84496.117188
193.011719	84204.421875
191.713867	83317.617188
190.416016	83552.023438
189.118164	83844.101562
187.819336	83610.492188
186.520508	83457.812500
185.221680	83120.437500
183.921875	83512.414062
182.622070	83048.187500
181.322266	83130.359375
180.022461	83093.273438
178.721680	82066.062500
177.421875	82767.320312
176.121094	82616.921875
174.819336	82581.867188
173.518555	82904.148438
172.216797	82519.468750
170.915039	81816.148438
169.613281	82766.226562
168.310547	82209.007812
167.007812	81811.304688
165.705078	81941.445312
164.402344	81896.953125
163.098633	82138.273438
161.794922	81621.968750
160.491211	81644.656250
159.187500	81274.335938
157.882812	80946.312500
156.578125	80834.960938
155.273438	80706.406250
153.968750	80288.640625
152.663086	79578.000000
151.357422	80512.500000
150.051758	80156.257812
148.746094	80079.617188
147.439453	79124.585938
146.132812	79226.109375
144.826172	79189.851562
143.518555	79115.351562
142.211914	79195.773438
140.904297	79140.414062
139.596680	79348.859375
138.288086	79236.148438
136.979492	78433.664062
135.670898	78068.984375
134.362305	77545.898438
133.053711	77147.148438
131.744141	76273.109375
130.434570	75525.398438
129.124023	74674.906250
127.814453	73471.710938
126.503906	72072.460938
125.193359	71255.539062
123.882812	69943.070312
122.571289	68716.906250
121.259766	66770.578125
119.948242	64954.609375
