#Wave		#Intensity
2198.949219	54874.750000
2198.015625	54617.539062
2197.083008	55009.941406
2196.149414	54850.460938
2195.215820	55186.445312
2194.282227	55160.859375
2193.347656	54645.386719
2192.414062	55157.878906
2191.479492	55143.007812
2190.545898	55489.347656
2189.611328	55164.105469
2188.675781	55724.289062
2187.741211	55733.390625
2186.806641	55167.628906
2185.871094	55136.718750
2184.935547	55159.273438
2184.000000	55489.140625
2183.064453	55281.839844
2182.128906	55496.695312
2181.193359	55655.386719
2180.256836	55277.242188
2179.320312	55673.546875
2178.383789	55258.152344
2177.447266	55350.035156
2176.510742	55180.355469
2175.573242	55344.261719
2174.636719	55540.117188
2173.699219	54946.386719
2172.761719	55896.957031
2171.824219	56031.285156
2170.886719	55563.066406
2169.948242	55692.070312
2169.010742	55807.703125
2168.072266	55736.777344
2167.133789	55807.066406
2166.195312	55531.062500
2165.256836	55673.265625
2164.317383	55916.601562
2163.378906	55672.660156
2162.439453	55950.511719
2161.500000	55680.031250
2160.560547	55984.386719
2159.620117	55674.085938
2158.680664	56201.769531
2157.740234	55809.089844
2156.800781	56006.843750
2155.860352	56002.476562
2154.919922	56322.398438
2153.978516	55919.332031
2153.038086	55617.371094
2152.096680	55947.816406
2151.156250	56227.671875
2150.214844	56132.960938
2149.273438	55921.449219
2148.331055	55893.191406
2147.389648	56034.828125
2146.447266	56319.726562
2145.505859	55872.156250
2144.563477	56212.691406
2143.621094	56152.566406
2142.677734	56702.453125
2141.735352	56318.757812
2140.791992	56502.550781
2139.848633	56609.406250
2138.906250	56342.535156
2137.961914	55718.023438
2137.018555	56058.097656
2136.075195	56805.984375
2135.130859	56894.148438
2134.186523	56275.261719
2133.242188	56524.980469
2132.297852	57028.730469
2131.353516	56560.992188
2130.409180	56569.722656
2129.463867	57083.781250
2128.518555	56523.687500
2127.573242	56733.417969
2126.627930	56911.343750
2125.682617	57131.503906
2124.736328	56904.851562
2123.791016	56511.769531
2122.844727	56612.968750
2121.898438	56579.382812
2120.952148	57087.335938
2120.005859	56818.617188
2119.058594	57397.648438
2118.112305	57144.804688
2117.165039	57258.972656
2116.217773	57399.496094
2115.270508	57278.718750
2114.323242	56923.167969
2113.375000	57039.925781
2112.426758	56977.292969
2111.479492	57228.484375
2110.531250	57598.234375
2109.583008	57759.597656
2108.633789	56995.792969
2107.685547	57866.070312
2106.736328	57481.910156
2105.787109	57382.378906
2104.837891	57404.039062
2103.888672	57707.460938
2102.939453	57134.015625
2101.989258	57576.890625
2101.040039	57682.714844
2100.089844	57649.031250
2099.139648	57904.777344
2098.189453	57681.656250
2097.239258	57895.218750
2096.288086	57845.730469
2095.336914	57864.621094
2094.386719	57617.996094
2093.435547	57634.285156
2092.483398	58010.589844
2091.532227	58129.273438
2090.581055	57777.683594
2089.628906	58082.843750
2088.676758	58209.320312
2087.724609	57734.492188
2086.772461	58034.242188
2085.819336	58252.523438
2084.867188	58161.062500
2083.914062	58405.480469
2082.960938	58030.703125
2082.007812	58463.898438
2081.054688	58702.882812
2080.101562	58071.289062
2079.147461	58564.539062
2078.194336	58310.617188
2077.240234	58444.628906
2076.286133	58704.359375
2075.331055	58812.054688
2074.376953	58532.062500
2073.421875	58972.332031
2072.467773	58372.968750
2071.512695	58582.734375
2070.557617	58902.359375
2069.602539	58876.429688
2068.646484	58724.914062
2067.691406	58719.949219
2066.735352	58550.199219
2065.779297	59248.734375
2064.823242	58684.128906
2063.867188	58987.644531
2062.910156	59442.652344
2061.954102	58883.527344
2060.997070	58815.816406
2060.040039	59040.714844
2059.083008	58797.992188
2058.125977	58623.253906
2057.167969	58419.847656
2056.209961	59315.578125
2055.252930	59592.386719
2054.294922	58843.488281
2053.336914	59044.609375
2052.377930	59488.277344
2051.419922	59352.738281
2050.460938	59631.898438
2049.501953	59081.792969
2048.542969	59488.640625
2047.583984	59493.937500
2046.625000	59264.687500
2045.665039	59749.449219
2044.706055	59595.777344
2043.746094	59780.769531
2042.786133	59543.804688
2041.826172	59260.050781
2040.865234	59512.687500
2039.905273	59499.734375
2038.944336	59450.351562
2037.983398	59572.710938
2037.022461	59390.648438
2036.061523	59669.039062
2035.100586	60043.554688
2034.138672	60196.921875
2033.176758	59513.121094
2032.215820	59370.203125
2031.253906	59536.593750
2030.291016	60056.304688
2029.329102	59682.144531
2028.366211	59747.085938
2027.404297	59998.988281
2026.441406	59892.476562
2025.478516	59487.441406
2024.514648	60019.585938
2023.551758	60484.062500
2022.587891	59534.230469
2021.625000	60003.816406
2020.661133	60234.601562
2019.696289	59772.859375
2018.732422	59858.394531
2017.768555	60115.000000
2016.803711	59845.332031
2015.838867	59972.265625
2014.874023	60143.203125
2013.909180	59715.628906
2012.944336	59710.410156
2011.978516	60334.511719
2011.013672	60202.304688
2010.047852	60015.773438
2009.082031	60616.195312
2008.116211	60085.449219
2007.149414	60142.257812
2006.183594	60041.234375
2005.216797	60266.160156
2004.250000	60227.210938
2003.283203	60449.437500
2002.316406	60190.714844
2001.349609	60353.414062
2000.381836	60280.871094
1999.414062	60505.503906
1998.446289	60205.609375
1997.478516	60667.812500
1996.510742	60313.753906
1995.542969	60693.144531
1994.574219	60408.910156
1993.605469	60646.175781
1992.636719	60852.390625
1991.667969	60320.554688
1990.699219	60823.437500
1989.729492	60694.179688
1988.760742	60812.546875
1987.791016	60742.636719
1986.821289	60902.199219
1985.851562	61471.546875
1984.880859	61069.093750
1983.911133	61048.136719
1982.940430	61153.421875
1981.969727	60761.531250
1980.999023	61103.761719
1980.028320	60796.988281
1979.057617	60982.042969
1978.085938	60994.570312
1977.115234	60826.941406
1976.143555	60739.132812
1975.171875	61351.128906
1974.199219	61201.523438
1973.227539	61180.558594
1972.254883	60766.179688
1971.283203	61244.046875
1970.310547	61307.902344
1969.337891	61461.683594
1968.364258	60847.109375
1967.391602	61337.464844
1966.417969	61627.292969
1965.444336	61544.625000
1964.470703	61123.039062
1963.497070	61425.582031
1962.523438	61319.882812
1961.548828	61144.925781
1960.575195	61665.406250
1959.600586	61174.886719
1958.625977	61705.433594
1957.651367	61212.507812
1956.675781	61435.160156
1955.701172	61678.238281
1954.725586	61393.195312
1953.750000	61461.921875
1952.774414	61584.429688
1951.798828	61417.390625
1950.822266	61639.757812
1949.846680	61751.921875
1948.870117	61695.042969
1947.893555	61371.925781
1946.916992	61233.214844
1945.940430	61335.125000
1944.962891	61774.757812
1943.986328	61876.531250
1943.008789	61420.640625
1942.031250	61420.132812
1941.053711	61348.031250
1940.075195	61789.820312
1939.097656	61748.347656
1938.119141	61793.777344
1937.140625	62097.269531
1936.162109	61843.710938
1935.183594	61597.898438
1934.205078	62189.847656
1933.225586	61967.039062
1932.246094	61555.382812
1931.266602	62251.675781
1930.287109	61702.292969
1929.307617	61954.324219
1928.328125	62109.320312
1927.347656	61958.164062
1926.367188	62011.085938
1925.386719	61849.796875
1924.406250	62239.238281
1923.425781	61741.492188
1922.444336	61916.734375
1921.463867	61842.199219
1920.482422	61877.238281
1919.500977	62054.906250
1918.518555	62194.304688
1917.537109	61923.699219
1916.555664	61984.148438
1915.573242	61790.027344
1914.590820	61903.917969
1913.608398	61791.304688
1912.625977	61783.031250
1911.642578	61952.816406
1910.660156	61809.726562
1909.676758	62167.601562
1908.693359	61925.371094
1907.709961	61967.906250
1906.725586	62201.035156
1905.742188	62243.503906
1904.757812	61808.335938
1903.773438	62036.281250
1902.789062	61654.632812
1901.804688	62131.359375
1900.820312	62366.734375
1899.834961	61822.769531
1898.849609	62499.699219
1897.865234	61760.515625
1896.878906	62706.132812
1895.893555	62210.671875
1894.908203	62354.472656
1893.921875	61912.492188
1892.935547	61817.984375
1891.949219	61637.324219
1890.962891	61692.414062
1889.976562	62076.886719
1888.989258	62043.207031
1888.002930	61951.277344
1887.015625	62153.152344
1886.028320	61881.457031
1885.041016	62275.671875
1884.052734	62176.164062
1883.065430	62701.781250
1882.077148	62678.140625
1881.088867	62535.597656
1880.100586	62124.988281
1879.112305	62250.660156
1878.123047	62340.886719
1877.134766	62466.468750
1876.145508	62104.175781
1875.156250	62116.027344
1874.166992	62438.667969
1873.176758	62372.136719
1872.187500	62800.699219
1871.197266	62138.121094
1870.207031	62311.546875
1869.216797	62654.050781
1868.226562	62504.234375
1867.236328	62346.898438
1866.245117	62590.804688
1865.253906	62849.757812
1864.262695	62407.414062
1863.271484	62883.187500
1862.280273	62332.562500
1861.289062	62298.933594
1860.296875	62318.246094
1859.304688	62299.750000
1858.312500	62916.214844
1857.320312	62479.421875
1856.328125	62715.292969
1855.334961	62573.332031
1854.341797	62499.398438
1853.348633	62324.792969
1852.355469	62661.199219
1851.362305	62506.750000
1850.369141	62291.968750
1849.375000	62645.804688
1848.380859	62896.390625
1847.386719	62877.800781
1846.392578	62658.066406
1845.398438	63089.511719
1844.403320	63083.457031
1843.409180	62956.777344
1842.414062	62794.960938
1841.418945	62696.003906
1840.422852	63408.367188
1839.427734	62794.519531
1838.431641	62946.691406
1837.436523	63121.398438
1836.440430	63040.031250
1835.444336	62993.820312
1834.447266	63118.238281
1833.451172	62896.421875
1832.454102	62812.628906
1831.457031	62884.347656
1830.459961	63154.113281
1829.462891	62749.433594
1828.465820	62908.839844
1827.467773	63073.199219
1826.469727	63229.980469
1825.472656	62687.781250
1824.473633	63067.488281
1823.475586	63579.781250
1822.477539	62937.648438
1821.478516	63144.371094
1820.479492	63148.285156
1819.480469	63349.890625
1818.481445	63426.316406
1817.482422	63505.218750
1816.482422	63021.332031
1815.483398	63272.820312
1814.483398	63496.714844
1813.483398	63535.542969
1812.482422	63176.949219
1811.482422	63258.296875
1810.481445	63684.402344
1809.480469	63405.906250
1808.480469	63449.695312
1807.478516	63411.058594
1806.477539	63547.210938
1805.476562	63079.199219
1804.474609	63624.675781
1803.472656	64005.261719
1802.470703	63876.730469
1801.468750	63446.402344
1800.465820	63063.609375
1799.463867	63094.898438
1798.460938	63547.535156
1797.458008	63541.332031
1796.455078	63652.269531
1795.451172	63900.218750
1794.448242	63682.171875
1793.444336	63857.789062
1792.440430	63213.929688
1791.436523	63165.441406
1790.432617	63532.753906
1789.428711	63815.300781
1788.423828	64140.054688
1787.418945	63474.304688
1786.414062	63331.257812
1785.409180	63628.554688
1784.404297	63664.601562
1783.398438	63566.351562
1782.393555	63689.406250
1781.387695	63621.007812
1780.381836	63741.519531
1779.375977	63871.925781
1778.369141	63448.250000
1777.363281	63827.058594
1776.356445	63475.558594
1775.349609	63399.808594
1774.342773	63651.796875
1773.335938	63511.500000
1772.328125	63118.101562
1771.320312	63486.625000
1770.312500	63219.894531
1769.304688	63608.109375
1768.296875	63197.601562
1767.289062	63399.707031
1766.280273	63098.457031
1765.271484	63369.910156
1764.263672	63487.609375
1763.253906	63734.113281
1762.245117	63361.160156
1761.236328	63367.324219
1760.226562	62905.406250
1759.216797	63221.160156
1758.207031	63341.218750
1757.197266	63248.359375
1756.186523	63378.265625
1755.176758	63401.726562
1754.166016	63323.738281
1753.155273	63149.312500
1752.144531	62932.898438
1751.133789	63656.171875
1750.122070	63345.800781
1749.110352	63075.082031
1748.099609	63105.960938
1747.086914	63119.531250
1746.075195	63301.085938
1745.063477	63462.812500
1744.050781	63303.429688
1743.038086	62753.976562
1742.025391	63424.265625
1741.012695	63343.953125
1740.000000	63466.031250
1738.986328	63595.468750
1737.973633	63014.363281
1736.959961	63242.488281
1735.946289	62807.144531
1734.932617	63207.820312
1733.917969	63083.253906
1732.903320	63708.031250
1731.889648	63105.328125
1730.875000	63320.859375
1729.860352	63331.843750
1728.844727	63451.195312
1727.830078	63678.859375
1726.814453	63512.488281
1725.798828	63282.167969
1724.783203	63669.722656
1723.767578	63272.105469
1722.750977	63140.363281
1721.735352	63417.023438
1720.718750	63590.285156
1719.702148	63647.898438
1718.685547	63417.820312
1717.667969	63271.402344
1716.651367	63614.148438
1715.633789	63187.597656
1714.616211	63653.078125
1713.598633	63302.820312
1712.581055	63365.308594
1711.562500	63670.886719
1710.543945	63681.722656
1709.526367	63442.160156
1708.506836	63462.847656
1707.488281	63787.812500
1706.469727	63514.000000
1705.450195	63831.476562
1704.431641	63540.585938
1703.412109	63654.406250
1702.391602	63660.304688
1701.372070	63622.078125
1700.352539	63694.148438
1699.332031	63947.527344
1698.311523	64002.363281
1697.291016	63893.050781
1696.270508	63105.355469
1695.249023	63564.343750
1694.228516	63719.578125
1693.207031	63696.058594
1692.185547	64037.214844
1691.164062	63768.941406
1690.141602	63437.152344
1689.120117	63978.746094
1688.097656	63803.554688
1687.075195	64009.886719
1686.052734	64020.554688
1685.030273	63757.445312
1684.006836	63311.125000
1682.984375	63739.750000
1681.960938	63743.121094
1680.937500	63663.433594
1679.913086	63398.164062
1678.889648	63794.714844
1677.865234	63795.621094
1676.841797	63686.679688
1675.817383	63409.382812
1674.792969	63920.324219
1673.767578	63257.609375
1672.743164	63278.109375
1671.717773	63635.152344
1670.692383	63728.726562
1669.666992	63627.226562
1668.641602	63562.324219
1667.615234	63960.484375
1666.589844	63437.457031
1665.563477	63833.054688
1664.537109	63794.945312
1663.510742	63708.140625
1662.483398	63319.433594
1661.457031	63446.972656
1660.429688	63494.140625
1659.402344	63619.160156
1658.375000	63208.839844
1657.347656	63684.179688
1656.319336	63453.976562
1655.291016	63415.972656
1654.263672	63122.675781
1653.235352	63369.164062
1652.206055	62869.378906
1651.177734	63553.246094
1650.148438	63405.906250
1649.119141	63073.992188
1648.089844	62970.503906
1647.060547	63423.160156
1646.031250	63037.996094
1645.000977	63395.796875
1643.971680	62940.382812
1642.941406	63011.718750
1641.911133	63398.445312
1640.879883	63222.234375
1639.849609	63152.800781
1638.818359	63141.589844
1637.787109	63183.722656
1636.755859	62716.769531
1635.724609	63701.773438
1634.692383	63317.281250
1633.661133	62899.003906
1632.628906	63180.941406
1631.596680	62978.386719
1630.564453	62904.242188
1629.531250	63079.496094
1628.499023	62187.167969
1627.465820	63333.000000
1626.432617	62803.910156
1625.399414	62983.882812
1624.366211	62866.261719
1623.332031	62342.363281
1622.298828	62394.160156
1621.264648	62885.949219
1620.230469	62606.460938
1619.195312	62530.082031
1618.161133	62973.250000
1617.125977	62689.054688
1616.091797	62834.921875
1615.056641	62647.453125
1614.020508	62440.730469
1612.985352	62403.074219
1611.949219	62551.292969
1610.914062	62487.078125
1609.877930	62936.843750
1608.841797	62530.000000
1607.804688	62048.523438
1606.768555	62447.472656
1605.731445	62298.929688
1604.694336	62577.148438
1603.657227	61842.906250
1602.620117	62347.636719
1601.582031	62570.269531
1600.544922	62315.824219
1599.506836	62680.488281
1598.468750	62582.640625
1597.430664	62337.953125
1596.391602	62668.710938
1595.353516	62428.898438
1594.314453	62761.921875
1593.275391	62310.441406
1592.236328	62333.035156
1591.196289	62605.757812
1590.157227	62568.164062
1589.117188	62218.011719
1588.077148	62831.964844
1587.037109	62469.867188
1585.997070	62475.570312
1584.956055	62454.835938
1583.916016	62559.027344
1582.875000	62607.933594
1581.833984	62700.046875
1580.792969	62734.500000
1579.750977	62540.890625
1578.708984	63038.574219
1577.667969	62158.667969
1576.625977	62663.433594
1575.583008	62501.148438
1574.541016	62228.593750
1573.499023	62411.742188
1572.456055	62196.835938
1571.413086	62195.343750
1570.370117	62785.832031
1569.326172	62525.433594
1568.283203	62703.566406
1567.239258	62541.484375
1566.195312	62666.851562
1565.151367	62586.242188
1564.107422	62464.960938
1563.062500	62288.664062
1562.018555	62402.011719
1560.973633	62594.281250
1559.928711	62819.972656
1558.883789	62701.136719
1557.837891	62656.476562
1556.791992	62688.347656
1555.747070	62459.617188
1554.701172	63043.660156
1553.654297	62587.906250
1552.608398	62583.914062
1551.561523	62888.105469
1550.515625	62532.933594
1549.468750	62922.992188
1548.421875	62811.484375
1547.374023	62470.832031
1546.327148	62481.171875
1545.279297	62598.894531
1544.231445	62518.535156
1543.183594	62772.183594
1542.135742	62865.929688
1541.086914	62606.699219
1540.039062	62929.335938
1538.990234	62689.250000
1537.941406	62821.074219
1536.891602	62821.777344
1535.842773	62643.781250
1534.792969	62458.703125
1533.743164	62345.136719
1532.693359	62338.773438
1531.643555	62182.406250
1530.593750	62154.644531
1529.542969	62733.804688
1528.492188	62363.277344
1527.441406	62209.390625
1526.390625	62381.449219
1525.339844	62539.175781
1524.288086	62378.195312
1523.237305	62728.437500
1522.185547	62593.628906
1521.132812	62456.484375
1520.081055	62680.578125
1519.029297	62498.320312
1517.976562	62059.585938
1516.923828	62483.121094
1515.871094	62039.789062
1514.818359	62061.941406
1513.764648	62001.007812
1512.710938	62262.855469
1511.658203	62218.507812
1510.603516	62363.968750
1509.549805	61857.074219
1508.496094	62033.375000
1507.441406	61742.492188
1506.386719	62023.054688
1505.332031	62237.148438
1504.277344	61970.074219
1503.222656	62134.335938
1502.166992	62308.011719
1501.111328	61939.210938
1500.055664	62129.433594
1499.000000	61853.132812
1497.944336	61946.238281
1496.887695	61852.316406
1495.831055	61455.515625
1494.774414	61650.375000
1493.717773	61511.601562
1492.661133	61895.593750
1491.603516	62005.125000
1490.546875	61717.402344
1489.489258	61659.082031
1488.430664	61830.042969
1487.373047	61963.128906
1486.315430	61588.187500
1485.256836	61794.496094
1484.198242	61790.523438
1483.139648	61916.425781
1482.081055	61435.507812
1481.021484	61374.941406
1479.962891	61229.425781
1478.903320	61329.375000
1477.843750	61153.242188
1476.783203	61430.078125
1475.723633	61282.292969
1474.663086	61419.875000
1473.602539	61267.421875
1472.541992	61136.234375
1471.481445	61033.371094
1470.420898	61394.746094
1469.359375	61258.886719
1468.297852	60915.789062
1467.236328	60935.496094
1466.174805	61051.730469
1465.113281	61024.316406
1464.050781	60641.480469
1462.988281	60823.597656
1461.925781	60659.753906
1460.863281	61044.117188
1459.800781	60995.542969
1458.737305	60808.238281
1457.673828	60498.726562
1456.610352	60840.515625
1455.546875	60556.960938
1454.483398	60861.007812
1453.418945	60897.093750
1452.355469	61050.621094
1451.291016	60983.304688
1450.226562	60859.652344
1449.161133	60968.488281
1448.096680	60880.089844
1447.031250	60812.843750
1445.965820	60851.218750
1444.900391	60793.382812
1443.834961	60519.750000
1442.768555	60900.578125
1441.703125	60415.968750
1440.636719	60524.707031
1439.570312	61125.667969
1438.502930	59910.035156
1437.436523	60679.605469
1436.369141	59989.285156
1435.301758	61065.421875
1434.234375	60199.625000
1433.166992	60394.882812
1432.098633	60487.058594
1431.031250	60534.726562
1429.962891	60348.335938
1428.894531	60576.179688
1427.826172	60359.429688
1426.756836	59962.644531
1425.688477	59937.847656
1424.619141	59924.753906
1423.549805	60276.359375
1422.479492	59884.539062
1421.410156	60091.128906
1420.339844	60278.949219
1419.270508	59938.726562
1418.200195	59741.105469
1417.128906	59777.082031
1416.058594	59971.820312
1414.987305	59832.652344
1413.916992	59847.578125
1412.845703	59953.511719
1411.773438	60043.070312
1410.702148	60162.921875
1409.629883	59953.863281
1408.558594	59707.562500
1407.486328	60275.058594
1406.413086	60012.464844
1405.340820	59761.621094
1404.267578	59585.429688
1403.195312	59241.550781
1402.122070	60027.578125
1401.048828	59390.277344
1399.974609	59591.507812
1398.901367	59620.375000
1397.827148	60030.984375
1396.752930	59806.078125
1395.678711	59485.843750
1394.603516	59230.863281
1393.529297	59945.957031
1392.454102	59570.046875
1391.378906	59461.671875
1390.303711	59850.855469
1389.228516	59024.214844
1388.152344	59301.777344
1387.076172	59453.761719
1386.000000	59408.222656
1384.923828	59511.351562
1383.847656	59579.605469
1382.770508	59678.015625
1381.694336	59465.308594
1380.617188	59196.968750
1379.540039	59365.007812
1378.461914	59486.582031
1377.384766	59123.261719
1376.306641	58889.957031
1375.228516	59326.925781
1374.150391	58650.816406
1373.072266	58936.984375
1371.993164	59093.253906
1370.914062	59110.425781
1369.834961	59025.640625
1368.755859	59112.308594
1367.676758	59046.078125
1366.597656	58595.472656
1365.517578	59008.609375
1364.437500	59134.558594
1363.357422	58545.308594
1362.276367	58793.933594
1361.196289	58676.917969
1360.115234	58280.050781
1359.034180	58188.609375
1357.953125	58508.789062
1356.872070	58579.167969
1355.790039	58446.105469
1354.708984	58909.343750
1353.626953	58924.148438
1352.544922	58767.984375
1351.461914	58690.410156
1350.379883	58652.121094
1349.296875	58636.933594
1348.213867	58538.640625
1347.130859	58500.390625
1346.047852	58642.156250
1344.963867	58453.921875
1343.880859	58249.605469
1342.796875	58665.804688
1341.712891	58473.046875
1340.627930	58623.902344
1339.543945	58327.480469
1338.458984	57897.484375
1337.374023	58334.101562
1336.289062	58056.316406
1335.204102	58476.617188
1334.118164	58104.472656
1333.033203	58377.230469
1331.947266	58518.656250
1330.861328	58211.152344
1329.774414	58039.542969
1328.688477	58302.902344
1327.601562	58310.789062
1326.514648	58272.664062
1325.427734	58386.343750
1324.340820	57961.910156
1323.252930	58169.855469
1322.165039	57821.460938
1321.077148	58169.542969
1319.989258	57812.082031
1318.901367	57941.785156
1317.813477	57814.179688
1316.724609	57845.082031
1315.635742	57956.332031
1314.546875	57865.519531
1313.457031	57979.019531
1312.368164	57801.023438
1311.278320	57712.574219
1310.188477	57569.097656
1309.098633	57923.386719
1308.008789	57520.785156
1306.917969	57391.171875
1305.827148	57431.238281
1304.737305	57205.417969
1303.645508	57605.273438
1302.554688	57193.914062
1301.462891	57611.949219
1300.372070	57118.281250
1299.280273	57650.667969
1298.188477	57335.750000
1297.095703	57517.671875
1296.003906	57537.031250
1294.911133	57210.851562
1293.818359	57388.113281
1292.725586	57272.519531
1291.631836	57001.449219
1290.539062	57400.445312
1289.445312	57344.343750
1288.351562	56963.683594
1287.257812	57106.500000
1286.164062	56901.957031
1285.069336	56983.046875
1283.974609	57223.996094
1282.879883	56944.171875
1281.785156	56792.308594
1280.690430	56811.714844
1279.594727	57095.875000
1278.499023	56782.035156
1277.403320	57182.457031
1276.307617	56777.460938
1275.211914	57148.085938
1274.115234	56807.085938
1273.018555	56409.210938
1271.921875	56718.144531
1270.825195	56297.632812
1269.728516	56998.414062
1268.630859	56769.378906
1267.533203	56948.171875
1266.435547	56382.148438
1265.337891	56114.632812
1264.239258	56395.890625
1263.141602	56387.957031
1262.042969	56468.781250
1260.944336	56221.910156
1259.845703	55724.871094
1258.746094	55990.011719
1257.647461	55898.003906
1256.547852	56053.867188
1255.448242	55950.507812
1254.347656	55854.000000
1253.248047	56109.773438
1252.147461	55738.335938
1251.046875	56293.906250
1249.946289	55795.371094
1248.845703	55846.578125
1247.744141	55702.500000
1246.643555	55814.992188
1245.541992	55854.808594
1244.440430	56107.925781
1243.337891	56020.617188
1242.236328	55781.347656
1241.133789	55519.488281
1240.031250	55659.085938
1238.928711	55683.007812
1237.826172	55759.050781
1236.722656	55737.613281
1235.619141	55528.097656
1234.515625	55681.152344
1233.412109	55804.703125
1232.308594	55708.523438
1231.204102	55607.847656
1230.100586	55538.902344
1228.996094	55261.730469
1227.890625	56066.429688
1226.786133	55567.519531
1225.680664	55469.210938
1224.576172	55434.265625
1223.470703	55397.074219
1222.364258	55405.109375
1221.258789	55435.750000
1220.152344	55330.761719
1219.046875	55356.878906
1217.940430	55272.273438
1216.833008	55363.898438
1215.726562	55525.503906
1214.619141	55705.117188
1213.511719	55541.476562
1212.404297	55158.925781
1211.296875	55462.632812
1210.189453	55294.605469
1209.081055	55469.570312
1207.972656	55479.800781
1206.864258	55686.238281
1205.755859	55006.417969
1204.646484	55512.710938
1203.537109	55090.128906
1202.427734	55361.835938
1201.318359	55268.410156
1200.208984	55425.082031
1199.098633	55286.625000
1197.989258	54941.027344
1196.878906	55178.726562
1195.768555	55470.367188
1194.657227	55244.210938
1193.546875	55405.203125
1192.435547	55584.136719
1191.324219	55072.378906
1190.212891	54972.402344
1189.100586	54778.011719
1187.989258	54531.976562
1186.876953	55054.832031
1185.764648	55271.828125
1184.652344	55243.804688
1183.539062	54993.359375
1182.426758	55201.253906
1181.313477	54935.183594
1180.200195	55192.410156
1179.086914	55242.992188
1177.972656	55156.628906
1176.858398	54915.437500
1175.744141	55309.347656
1174.629883	55115.324219
1173.515625	55215.207031
1172.401367	55133.398438
1171.286133	54993.320312
1170.170898	55025.910156
1169.055664	54906.070312
1167.939453	54636.121094
1166.824219	54955.550781
1165.708008	54820.101562
1164.591797	54807.882812
1163.475586	55245.789062
1162.359375	54864.062500
1161.242188	54813.781250
1160.125000	54759.042969
1159.007812	54919.144531
1157.890625	54497.476562
1156.773438	54977.445312
1155.655273	54571.570312
1154.537109	54461.007812
1153.418945	54967.542969
1152.300781	54582.000000
1151.181641	54567.589844
1150.063477	54356.546875
1148.944336	54324.308594
1147.825195	54582.457031
1146.706055	54371.519531
1145.585938	54392.875000
1144.465820	54286.972656
1143.345703	54404.308594
1142.225586	54148.914062
1141.105469	54270.691406
1139.984375	53946.253906
1138.864258	54536.414062
1137.743164	54169.671875
1136.622070	53979.199219
1135.500000	54172.218750
1134.378906	54135.601562
1133.256836	54266.121094
1132.134766	54280.738281
1131.011719	53593.656250
1129.889648	53728.652344
1128.766602	53716.628906
1127.644531	54114.261719
1126.520508	53999.773438
1125.397461	53271.070312
1124.274414	54022.359375
1123.150391	53756.664062
1122.026367	53261.949219
1120.902344	53997.257812
1119.778320	53269.207031
1118.653320	53908.640625
1117.528320	53821.011719
1116.404297	53564.515625
1115.278320	53352.550781
1114.153320	54144.781250
1113.027344	53390.832031
1111.902344	53305.585938
1110.776367	53380.226562
1109.649414	53528.097656
1108.523438	53380.722656
1107.396484	53537.410156
1106.269531	53629.695312
1105.142578	53273.855469
1104.015625	53115.535156
1102.888672	53460.628906
1101.760742	53226.949219
1100.632812	53793.558594
1099.504883	53194.214844
1098.376953	53381.710938
1097.248047	53177.003906
1096.119141	53499.546875
1094.990234	53500.847656
1093.861328	53234.226562
1092.732422	53290.917969
1091.602539	52798.660156
1090.473633	53528.156250
1089.343750	53465.277344
1088.212891	53453.296875
1087.083008	53496.613281
1085.952148	53480.203125
1084.821289	53337.769531
1083.690430	53106.964844
1082.559570	53044.214844
1081.428711	53359.355469
1080.296875	53259.019531
1079.165039	52968.746094
1078.033203	53091.578125
1076.900391	53492.585938
1075.768555	53315.019531
1074.635742	53077.914062
1073.502930	52779.097656
1072.370117	53508.640625
1071.237305	53126.015625
1070.103516	53361.136719
1068.969727	53459.441406
1067.835938	52953.554688
1066.702148	53188.570312
1065.567383	53051.000000
1064.433594	52820.925781
1063.298828	53135.148438
1062.164062	53391.980469
1061.028320	53252.261719
1059.893555	53026.710938
1058.757812	53212.960938
1057.622070	53293.476562
1056.486328	53101.046875
1055.350586	53271.769531
1054.213867	52729.597656
1053.077148	52968.511719
1051.940430	52881.839844
1050.803711	53037.074219
1049.666992	53447.273438
1048.529297	53059.417969
1047.391602	52742.031250
1046.253906	52789.500000
1045.116211	52902.859375
1043.977539	53101.835938
1042.838867	52942.777344
1041.701172	53102.148438
1040.561523	52903.628906
1039.422852	52898.328125
1038.283203	53138.804688
1037.144531	53148.816406
1036.004883	53009.652344
1034.864258	52837.640625
1033.724609	52516.574219
1032.583984	53188.804688
1031.444336	53067.261719
1030.302734	52693.722656
1029.162109	52999.605469
1028.021484	52886.921875
1026.879883	52991.128906
1025.738281	52694.523438
1024.596680	52551.292969
1023.455078	52500.062500
1022.312500	52746.531250
1021.169922	53076.070312
1020.027344	52735.945312
1018.884766	52179.367188
1017.742188	52436.636719
1016.598633	52195.218750
1015.455078	52620.742188
1014.311523	52453.699219
1013.167969	52608.000000
1012.023438	52738.203125
1010.878906	52665.167969
1009.734375	51976.152344
1008.589844	52966.894531
1007.445312	52658.023438
1006.299805	52460.601562
1005.155273	52547.019531
1004.009766	52340.957031
1002.863281	52693.566406
1001.717773	52374.105469
1000.571289	52139.828125
999.424805	52740.886719
998.278320	52452.109375
997.131836	52409.781250
995.984375	52722.742188
994.837891	52462.453125
993.690430	52422.316406
992.542969	52290.699219
991.394531	52300.695312
990.247070	51977.515625
989.098633	52433.894531
987.950195	52968.464844
986.801758	52617.039062
985.652344	52348.429688
984.502930	52732.597656
983.354492	52474.937500
982.204102	52326.105469
981.054688	52301.269531
979.905273	52278.617188
978.754883	51992.960938
977.604492	52435.433594
976.454102	52493.156250
975.302734	52411.816406
974.152344	52115.476562
973.000977	52203.621094
971.849609	52207.050781
970.697266	52688.058594
969.545898	52428.773438
968.393555	52640.476562
967.241211	52459.398438
966.088867	52274.042969
964.936523	52296.960938
963.783203	52330.714844
962.629883	52468.515625
961.476562	52198.750000
960.323242	52481.722656
959.169922	52097.207031
958.015625	52412.589844
956.861328	52298.976562
955.707031	52482.093750
954.552734	52154.148438
953.397461	52365.367188
952.242188	51795.136719
951.086914	52467.281250
949.931641	52654.515625
948.776367	52348.460938
947.620117	52578.902344
946.463867	52489.210938
945.307617	52263.343750
944.151367	52610.394531
942.995117	52228.972656
941.837891	52344.687500
940.680664	52207.582031
939.523438	52357.812500
938.365234	52678.597656
937.208008	52198.175781
936.049805	52233.898438
934.891602	52308.460938
933.733398	52288.035156
932.574219	52582.632812
931.416016	51984.011719
930.256836	52349.730469
929.097656	51535.714844
927.937500	51828.074219
926.778320	51928.464844
925.618164	52671.089844
924.458008	52163.601562
923.297852	52035.492188
922.136719	52002.207031
920.976562	51966.777344
919.815430	51832.304688
918.654297	51702.187500
917.492188	51714.179688
916.331055	51224.722656
915.168945	51804.851562
914.006836	51416.664062
912.844727	51688.957031
911.682617	51490.175781
910.519531	51603.238281
909.356445	51855.988281
908.193359	51885.113281
907.030273	51630.562500
905.866211	51850.933594
904.703125	52038.996094
903.539062	51857.574219
902.374023	51628.976562
901.209961	51327.464844
900.044922	51577.726562
898.880859	51656.203125
897.715820	51835.496094
896.549805	51469.796875
895.384766	51580.417969
894.218750	51551.593750
893.052734	51544.222656
891.886719	51513.269531
890.720703	51675.230469
889.553711	51363.527344
888.386719	51296.191406
887.219727	51535.214844
886.052734	51510.707031
884.885742	51537.597656
883.717773	51665.105469
882.549805	51846.078125
881.381836	51063.878906
880.213867	51210.652344
879.044922	51214.031250
877.875977	51499.757812
876.707031	51197.246094
875.538086	51476.453125
874.368164	51443.425781
873.199219	51555.753906
872.029297	51533.406250
870.859375	51476.875000
869.688477	51574.175781
868.518555	51190.859375
867.347656	51473.960938
866.176758	51361.960938
865.005859	51529.644531
863.833984	51511.582031
862.663086	51551.136719
861.491211	51782.695312
860.319336	51666.460938
859.146484	51300.742188
857.974609	51843.531250
856.801758	51639.933594
855.628906	51442.808594
854.456055	51301.160156
853.282227	51824.359375
852.109375	51322.660156
850.935547	51935.113281
849.761719	52055.410156
848.586914	51458.125000
847.413086	51970.156250
846.238281	51728.542969
845.063477	51991.355469
843.888672	51558.339844
842.712891	51344.582031
841.538086	51617.945312
840.362305	51684.941406
839.186523	51222.531250
838.009766	51559.527344
836.833984	51515.976562
835.657227	52084.398438
834.480469	51915.417969
833.303711	51642.421875
832.125977	51671.082031
830.949219	52118.019531
829.771484	51736.859375
828.592773	51689.074219
827.415039	51906.562500
826.237305	52047.589844
825.058594	51870.363281
823.879883	51778.039062
822.700195	52105.609375
821.521484	51782.171875
820.341797	51978.191406
819.162109	51953.722656
817.982422	52158.109375
816.802734	52031.921875
815.622070	52032.871094
814.442383	52107.933594
813.260742	52166.031250
812.080078	51974.300781
810.899414	51833.433594
809.717773	52037.562500
808.536133	51947.511719
807.354492	52153.652344
806.172852	52272.996094
804.990234	52218.894531
803.807617	51955.500000
802.625000	51675.292969
801.442383	52236.339844
800.258789	51761.777344
799.076172	51908.511719
797.892578	52162.917969
796.708008	51944.160156
795.524414	51539.671875
794.339844	51861.554688
793.155273	51951.132812
791.970703	51916.167969
790.786133	52020.468750
789.601562	52019.250000
788.416016	51878.828125
787.230469	51713.148438
786.044922	51458.980469
784.858398	52172.460938
783.672852	51985.738281
782.486328	52115.160156
781.299805	52103.375000
780.112305	51906.230469
778.925781	51694.414062
777.738281	51827.996094
776.550781	51776.265625
775.363281	52196.035156
774.174805	51805.433594
772.986328	51572.777344
771.797852	51853.503906
770.609375	51822.835938
769.420898	51916.250000
768.231445	51563.894531
767.042969	51840.199219
765.853516	51811.652344
764.663086	52352.570312
763.473633	51582.300781
762.283203	51421.472656
761.092773	51651.332031
759.902344	51874.804688
758.710938	51800.082031
757.520508	51857.617188
756.329102	51996.976562
755.137695	51670.476562
753.946289	51855.964844
752.753906	51902.953125
751.561523	51700.371094
750.369141	51596.406250
749.176758	51915.921875
747.984375	51730.214844
746.791016	52187.882812
745.597656	51614.593750
744.404297	52002.984375
743.210938	51865.554688
742.016602	51435.027344
740.822266	52015.832031
739.627930	51698.460938
738.433594	51565.367188
737.238281	51679.218750
736.043945	51895.531250
734.848633	51804.300781
733.652344	51681.730469
732.457031	51908.371094
731.260742	51815.089844
730.065430	51805.441406
728.868164	51689.226562
727.671875	52018.058594
726.475586	51699.218750
725.278320	51639.468750
724.081055	51796.898438
722.883789	51574.304688
721.685547	51982.156250
720.487305	51805.523438
719.289062	52100.503906
718.090820	51992.746094
716.892578	51634.742188
715.693359	51710.621094
714.494141	51634.265625
713.294922	52020.710938
712.095703	52106.890625
710.896484	51905.468750
709.696289	51749.953125
708.496094	51984.023438
707.295898	51716.085938
706.094727	51606.496094
704.894531	51973.691406
703.693359	51868.253906
702.492188	51839.851562
701.290039	52084.031250
700.088867	51982.785156
698.886719	52014.687500
697.684570	51826.144531
696.481445	51966.179688
695.279297	52041.714844
694.076172	52088.121094
692.873047	52115.808594
691.669922	51754.972656
690.466797	52158.679688
689.262695	52059.644531
688.058594	52116.375000
686.854492	51809.773438
685.650391	51976.535156
684.445312	52242.847656
683.240234	52284.968750
682.035156	51864.457031
680.830078	51869.292969
679.624023	52108.457031
678.418945	52436.683594
677.212891	51974.988281
676.006836	52180.832031
674.799805	52195.953125
673.593750	51912.730469
672.386719	52002.460938
671.179688	52340.679688
669.971680	51879.507812
668.764648	51965.046875
667.556641	51949.128906
666.348633	52270.539062
665.140625	52105.593750
663.931641	52046.207031
662.722656	51657.984375
661.513672	51894.414062
660.304688	51936.402344
659.095703	52112.742188
657.885742	51714.449219
656.675781	51930.019531
655.465820	51794.285156
654.255859	51887.882812
653.044922	51964.921875
651.833984	52231.894531
650.623047	52098.261719
649.412109	52185.531250
648.200195	52060.207031
646.989258	51972.066406
645.777344	51595.148438
644.565430	51655.625000
643.352539	51909.914062
642.139648	51574.449219
640.927734	52032.730469
639.713867	51775.679688
638.500977	51710.355469
637.287109	51675.960938
636.074219	51598.316406
634.860352	51450.679688
633.645508	51509.000000
632.431641	51734.046875
631.216797	51843.742188
630.001953	51480.082031
628.787109	51390.203125
627.571289	51765.261719
626.356445	51792.593750
625.140625	51365.457031
623.924805	51865.718750
622.708008	51280.445312
621.491211	51519.523438
620.275391	51538.640625
619.058594	51545.421875
617.840820	51211.230469
616.624023	51624.691406
615.406250	51360.417969
614.188477	51617.667969
612.970703	51618.261719
611.751953	51764.550781
610.533203	51855.386719
609.314453	51845.667969
608.095703	51581.636719
606.876953	51621.183594
605.657227	51957.988281
604.437500	51708.425781
603.217773	50846.171875
601.998047	51805.835938
600.777344	51402.781250
599.556641	51634.839844
598.335938	51555.531250
597.115234	51564.292969
595.893555	51601.707031
594.672852	51506.066406
593.451172	51696.949219
592.228516	52006.425781
591.006836	51698.015625
589.784180	51334.500000
588.561523	51795.179688
587.338867	52155.503906
586.116211	51716.468750
584.892578	51821.210938
583.668945	51752.230469
582.445312	51199.109375
581.221680	51659.281250
579.997070	51823.164062
578.772461	51788.937500
577.547852	52099.710938
576.323242	51542.949219
575.097656	51729.171875
573.872070	51882.675781
572.646484	51662.835938
571.420898	51736.750000
570.195312	51859.578125
568.968750	51811.101562
567.742188	51811.566406
566.515625	51565.437500
565.289062	51891.945312
564.061523	51482.914062
562.833984	51733.953125
561.606445	51815.871094
560.377930	51698.226562
559.150391	52270.703125
557.921875	51501.738281
556.693359	51581.593750
555.464844	51836.382812
554.235352	51775.789062
553.005859	51924.687500
551.776367	51422.863281
550.546875	51748.632812
549.317383	51421.824219
548.086914	51605.214844
546.856445	51408.589844
545.625977	51595.972656
544.394531	51212.558594
543.164062	50849.593750
541.932617	51564.839844
540.700195	51124.804688
539.468750	51040.097656
538.236328	51144.128906
537.004883	51300.867188
535.771484	51210.082031
534.539062	51257.230469
533.306641	51022.523438
532.073242	51217.675781
530.839844	50976.976562
529.605469	50993.730469
528.372070	50844.335938
527.137695	50861.097656
525.903320	51114.816406
524.668945	51020.148438
523.433594	50820.238281
522.199219	50764.117188
520.963867	50627.058594
519.728516	50825.941406
518.492188	50773.886719
517.255859	50549.925781
516.020508	50415.027344
514.783203	50797.777344
513.546875	50887.265625
512.309570	50495.687500
511.072266	50839.808594
509.834961	50626.175781
508.597656	50691.375000
507.359375	50689.906250
506.122070	50714.679688
504.883789	50830.292969
503.644531	50661.257812
502.406250	50094.722656
501.166992	50870.164062
499.927734	50388.527344
498.688477	50703.753906
497.448242	50665.964844
496.208984	50485.039062
494.968750	50794.019531
493.727539	50490.191406
492.487305	49942.660156
491.246094	50847.894531
490.004883	50969.234375
488.763672	50399.761719
487.522461	50883.566406
486.280273	50747.140625
485.038086	50914.691406
483.795898	51110.351562
482.553711	50489.062500
481.310547	51171.535156
480.067383	50815.949219
478.824219	51015.488281
477.581055	50694.238281
476.336914	50903.773438
475.092773	51151.410156
473.848633	50874.515625
472.604492	50402.851562
471.360352	50608.257812
470.115234	50829.648438
468.870117	50512.855469
467.625000	50878.710938
466.378906	51330.730469
465.132812	50434.082031
463.886719	50910.085938
462.640625	50705.898438
461.394531	50754.480469
460.147461	50720.835938
458.900391	50651.109375
457.653320	50310.816406
456.405273	50525.761719
455.158203	50462.121094
453.910156	51149.726562
452.662109	50969.816406
451.413086	50599.730469
450.165039	50978.585938
448.916016	50398.449219
447.666992	50693.136719
446.416992	50427.425781
445.167969	50453.906250
443.917969	50188.335938
442.667969	50426.832031
441.416992	50627.246094
440.166992	50005.945312
438.916016	50214.351562
437.665039	50190.871094
436.414062	50397.160156
435.162109	50014.078125
433.910156	50178.378906
432.658203	50300.679688
431.406250	50077.542969
430.154297	49756.679688
428.901367	50172.355469
427.648438	49831.636719
426.395508	50201.250000
425.141602	49519.578125
423.888672	49550.089844
422.634766	49859.726562
421.379883	50167.250000
420.125977	49599.695312
418.871094	49640.125000
417.616211	50377.847656
416.361328	49961.953125
415.106445	49729.441406
413.850586	50052.554688
412.594727	49804.179688
411.338867	49973.890625
410.083008	49359.449219
408.826172	49680.386719
407.569336	49647.105469
406.312500	49554.167969
405.055664	49292.238281
403.797852	49791.871094
402.540039	49643.292969
401.282227	49735.246094
400.024414	49497.312500
398.765625	49527.667969
397.506836	50020.816406
396.248047	49687.632812
394.989258	49789.406250
393.729492	49686.667969
392.469727	49645.492188
391.209961	49761.101562
389.950195	49751.667969
388.690430	49438.738281
387.429688	49625.707031
386.168945	49578.625000
384.907227	49610.855469
383.646484	49633.164062
382.384766	49790.222656
381.123047	49757.000000
379.861328	49791.148438
378.598633	49437.070312
377.336914	49483.140625
376.074219	49770.738281
374.810547	49377.265625
373.547852	49821.125000
372.284180	49696.902344
371.020508	49853.656250
369.756836	49229.031250
368.493164	49905.933594
367.228516	49918.210938
365.963867	49950.250000
364.699219	50355.839844
363.433594	50207.949219
362.167969	50664.699219
360.903320	51555.863281
359.636719	52006.253906
358.371094	52960.007812
357.104492	53228.320312
355.837891	53958.425781
354.571289	55191.496094
353.304688	55181.011719
352.037109	56393.648438
350.769531	56242.898438
349.501953	57488.390625
348.234375	59255.894531
346.965820	61497.800781
345.697266	63845.281250
344.428711	64840.089844
343.159180	64140.183594
341.890625	61941.542969
340.621094	58768.882812
339.351562	56396.851562
338.081055	54137.929688
336.811523	52885.656250
335.541016	51820.804688
334.270508	51448.929688
332.999023	50581.464844
331.728516	50373.203125
330.457031	50060.796875
329.185547	49882.199219
327.913086	49766.566406
326.641602	49424.968750
325.369141	49515.777344
324.096680	49164.527344
322.824219	49096.250000
321.550781	49208.664062
320.277344	49091.316406
319.003906	48693.292969
317.730469	49186.468750
316.456055	49222.242188
315.181641	49140.285156
313.907227	49248.625000
312.632812	49103.929688
311.357422	49012.226562
310.082031	49057.789062
308.806641	49032.769531
307.531250	49272.316406
306.254883	48633.996094
304.979492	49022.398438
303.702148	48799.578125
302.425781	48878.406250
301.149414	48847.558594
299.872070	48990.937500
298.594727	49496.316406
297.316406	49449.707031
296.039062	49729.824219
294.760742	50371.683594
293.482422	50313.195312
292.204102	51298.812500
290.924805	51638.953125
289.645508	52016.093750
288.366211	52098.023438
287.086914	51978.683594
285.806641	52037.144531
284.526367	52113.156250
283.246094	51843.527344
281.965820	51915.636719
280.684570	51892.074219
279.404297	51612.875000
278.122070	51167.937500
276.840820	50469.566406
275.559570	50007.457031
274.277344	50655.066406
272.995117	50682.449219
271.711914	51037.292969
270.429688	51713.562500
269.146484	52060.273438
267.863281	53244.550781
266.580078	55063.343750
265.295898	56713.960938
264.011719	59325.781250
262.727539	63075.386719
261.443359	68514.875000
260.158203	76345.757812
258.873047	86790.390625
257.587891	98370.898438
256.302734	109147.671875
255.016602	115070.929688
253.730469	112125.109375
252.444336	101979.070312
251.158203	89899.421875
249.871094	79458.390625
248.584961	71366.023438
247.297852	65644.273438
246.009766	61404.386719
244.722656	58041.707031
243.434570	56149.710938
242.146484	53982.851562
240.857422	52567.730469
239.569336	51651.718750
238.280273	50167.753906
236.991211	50061.207031
235.701172	49136.496094
234.412109	48504.851562
233.122070	47761.031250
231.832031	47403.109375
230.541016	47068.566406
229.250977	46871.679688
227.959961	46717.472656
226.668945	46367.757812
225.376953	45985.261719
224.085938	45693.882812
222.793945	45627.089844
221.501953	45432.621094
220.208984	45062.199219
218.916992	45078.718750
217.624023	44530.601562
216.331055	44777.277344
215.037109	44606.347656
213.743164	44678.980469
212.450195	44463.683594
211.155273	44298.699219
209.861328	44023.679688
208.566406	44075.117188
207.271484	43560.835938
205.976562	43982.964844
204.681641	43495.910156
203.385742	43504.949219
202.089844	43367.363281
200.793945	43316.625000
199.497070	43084.625000
198.201172	43105.296875
196.904297	43141.378906
195.607422	43007.835938
194.309570	42799.187500
193.011719	42816.039062
191.713867	42339.750000
190.416016	42755.339844
189.118164	42633.542969
187.819336	42538.738281
186.520508	42390.078125
185.221680	42405.050781
183.921875	42335.351562
182.622070	41969.429688
181.322266	42140.257812
180.022461	42020.648438
178.721680	42333.667969
177.421875	42413.972656
176.121094	42453.890625
174.819336	42117.175781
173.518555	42124.468750
172.216797	42444.839844
170.915039	41920.117188
169.613281	42167.441406
168.310547	42013.457031
167.007812	41997.722656
165.705078	41863.019531
164.402344	41626.683594
163.098633	41871.894531
161.794922	41925.230469
160.491211	41621.902344
159.187500	41073.300781
157.882812	41161.253906
156.578125	41230.007812
155.273438	41254.667969
153.968750	41465.128906
152.663086	41277.136719
151.357422	40964.750000
150.051758	41052.609375
148.746094	40847.574219
147.439453	40939.246094
146.132812	40510.437500
144.826172	40326.660156
143.518555	40282.574219
142.211914	40318.820312
140.904297	40379.906250
139.596680	40440.968750
138.288086	40115.941406
136.979492	39991.671875
135.670898	39770.019531
134.362305	39542.718750
133.053711	39218.105469
131.744141	38876.429688
130.434570	38426.074219
129.124023	38136.214844
127.814453	37544.957031
126.503906	37173.332031
125.193359	36445.144531
123.882812	35522.703125
122.571289	35239.386719
121.259766	34050.628906
119.948242	33420.804688
