#Wave		#Intensity
2198.949219	153507.828125
2198.015625	153601.609375
2197.083008	154218.031250
2196.149414	154464.609375
2195.215820	154579.890625
2194.282227	154657.640625
2193.347656	153991.140625
2192.414062	155091.390625
2191.479492	154334.062500
2190.545898	154901.406250
2189.611328	154799.765625
2188.675781	155227.750000
2187.741211	155719.750000
2186.806641	155478.968750
2185.871094	154995.000000
2184.935547	155427.968750
2184.000000	156136.031250
2183.064453	154570.046875
2182.128906	155267.328125
2181.193359	155740.000000
2180.256836	155699.750000
2179.320312	155579.406250
2178.383789	155152.093750
2177.447266	155258.765625
2176.510742	156614.328125
2175.573242	155381.234375
2174.636719	155871.937500
2173.699219	156151.765625
2172.761719	155815.437500
2171.824219	156511.109375
2170.886719	157091.890625
2169.948242	156470.359375
2169.010742	155819.718750
2168.072266	156823.968750
2167.133789	156096.218750
2166.195312	156551.359375
2165.256836	157075.578125
2164.317383	157112.343750
2163.378906	157165.046875
2162.439453	156270.156250
2161.500000	157310.328125
2160.560547	157339.015625
2159.620117	157455.484375
2158.680664	156859.031250
2157.740234	157076.593750
2156.800781	157610.484375
2155.860352	157458.281250
2154.919922	156878.171875
2153.978516	158158.609375
2153.038086	157124.187500
2152.096680	157567.265625
2151.156250	157425.796875
2150.214844	157512.765625
2149.273438	157355.421875
2148.331055	157994.578125
2147.389648	158426.468750
2146.447266	157621.453125
2145.505859	158289.406250
2144.563477	158888.140625
2143.621094	157749.218750
2142.677734	159254.859375
2141.735352	158161.328125
2140.791992	158468.015625
2139.848633	157905.156250
2138.906250	158582.796875
2137.961914	159326.468750
2137.018555	158761.062500
2136.075195	158383.937500
2135.130859	158676.984375
2134.186523	159417.437500
2133.242188	159485.156250
2132.297852	159457.562500
2131.353516	159302.921875
2130.409180	158963.093750
2129.463867	159356.234375
2128.518555	160016.421875
2127.573242	160007.218750
2126.627930	159292.000000
2125.682617	160282.312500
2124.736328	159633.343750
2123.791016	159687.640625
2122.844727	160185.843750
2121.898438	160382.671875
2120.952148	160399.796875
2120.005859	160345.609375
2119.058594	160336.328125
2118.112305	160416.796875
2117.165039	161183.578125
2116.217773	161620.171875
2115.270508	160681.765625
2114.323242	160281.921875
2113.375000	161868.562500
2112.426758	161563.578125
2111.479492	161203.328125
2110.531250	160993.468750
2109.583008	161532.328125
2108.633789	161744.187500
2107.685547	162601.578125
2106.736328	161883.093750
2105.787109	161799.718750
2104.837891	162480.171875
2103.888672	161985.890625
2102.939453	161741.921875
2101.989258	162324.609375
2101.040039	162701.796875
2100.089844	162499.906250
2099.139648	163111.078125
2098.189453	164132.421875
2097.239258	163533.203125
2096.288086	163512.734375
2095.336914	163657.921875
2094.386719	163298.312500
2093.435547	163987.515625
2092.483398	163719.937500
2091.532227	163628.484375
2090.581055	163245.468750
2089.628906	163590.109375
2088.676758	164798.609375
2087.724609	164898.671875
2086.772461	164804.437500
2085.819336	164064.546875
2084.867188	165314.093750
2083.914062	164834.109375
2082.960938	165104.578125
2082.007812	165262.140625
2081.054688	165668.781250
2080.101562	165107.781250
2079.147461	164908.718750
2078.194336	165438.390625
2077.240234	165386.078125
2076.286133	165496.250000
2075.331055	165834.265625
2074.376953	165155.906250
2073.421875	166418.296875
2072.467773	166502.000000
2071.512695	166391.937500
2070.557617	165690.359375
2069.602539	166588.000000
2068.646484	166396.843750
2067.691406	165970.312500
2066.735352	166875.265625
2065.779297	166783.515625
2064.823242	167170.281250
2063.867188	167000.078125
2062.910156	167514.734375
2061.954102	167334.062500
2060.997070	167524.484375
2060.040039	167061.718750
2059.083008	167427.093750
2058.125977	167580.812500
2057.167969	167439.421875
2056.209961	168081.250000
2055.252930	168370.484375
2054.294922	168416.906250
2053.336914	167709.234375
2052.377930	167189.640625
2051.419922	167862.218750
2050.460938	168333.765625
2049.501953	168630.421875
2048.542969	167959.796875
2047.583984	168577.015625
2046.625000	168221.953125
2045.665039	168870.171875
2044.706055	168226.000000
2043.746094	169337.609375
2042.786133	168500.843750
2041.826172	169380.281250
2040.865234	169080.078125
2039.905273	169342.187500
2038.944336	169625.031250
2037.983398	169777.671875
2037.022461	169784.562500
2036.061523	169271.234375
2035.100586	169390.031250
2034.138672	169022.531250
2033.176758	169695.062500
2032.215820	170952.187500
2031.253906	170272.734375
2030.291016	169247.937500
2029.329102	170447.296875
2028.366211	170235.828125
2027.404297	170247.750000
2026.441406	170085.703125
2025.478516	170964.734375
2024.514648	170148.500000
2023.551758	170715.781250
2022.587891	170475.890625
2021.625000	171045.515625
2020.661133	170694.093750
2019.696289	170819.984375
2018.732422	171002.875000
2017.768555	171221.984375
2016.803711	170704.859375
2015.838867	172180.859375
2014.874023	171264.703125
2013.909180	170379.953125
2012.944336	170438.359375
2011.978516	171498.984375
2011.013672	171632.234375
2010.047852	171734.375000
2009.082031	171290.312500
2008.116211	172249.093750
2007.149414	171745.578125
2006.183594	171658.734375
2005.216797	172241.875000
2004.250000	172266.171875
2003.283203	171139.796875
2002.316406	171608.953125
2001.349609	171620.406250
2000.381836	171916.125000
1999.414062	172607.093750
1998.446289	172070.656250
1997.478516	172118.156250
1996.510742	172997.218750
1995.542969	173287.265625
1994.574219	173189.937500
1993.605469	173885.078125
1992.636719	173454.734375
1991.667969	172751.031250
1990.699219	172904.093750
1989.729492	173921.187500
1988.760742	173279.656250
1987.791016	173623.328125
1986.821289	173732.265625
1985.851562	173588.562500
1984.880859	173846.921875
1983.911133	173461.015625
1982.940430	174301.562500
1981.969727	173292.328125
1980.999023	174215.000000
1980.028320	173273.093750
1979.057617	173603.296875
1978.085938	174023.468750
1977.115234	173905.609375
1976.143555	174456.796875
1975.171875	174673.328125
1974.199219	174182.421875
1973.227539	173845.984375
1972.254883	174463.625000
1971.283203	175235.312500
1970.310547	174654.656250
1969.337891	174865.750000
1968.364258	175027.937500
1967.391602	174843.250000
1966.417969	174656.046875
1965.444336	174843.859375
1964.470703	174990.500000
1963.497070	174888.078125
1962.523438	174834.437500
1961.548828	175509.671875
1960.575195	175479.031250
1959.600586	175787.046875
1958.625977	176333.484375
1957.651367	175661.531250
1956.675781	175364.187500
1955.701172	176038.578125
1954.725586	175461.859375
1953.750000	175856.640625
1952.774414	175467.187500
1951.798828	175838.765625
1950.822266	175920.750000
1949.846680	175664.656250
1948.870117	175639.078125
1947.893555	176066.656250
1946.916992	176527.359375
1945.940430	177021.156250
1944.962891	176294.234375
1943.986328	175907.812500
1943.008789	176936.046875
1942.031250	176472.921875
1941.053711	176319.328125
1940.075195	176700.125000
1939.097656	177075.656250
1938.119141	177435.734375
1937.140625	176295.734375
1936.162109	176768.218750
1935.183594	177358.015625
1934.205078	176325.875000
1933.225586	177303.656250
1932.246094	177428.390625
1931.266602	176930.250000
1930.287109	177634.312500
1929.307617	176830.093750
1928.328125	177036.437500
1927.347656	176480.015625
1926.367188	177367.265625
1925.386719	177792.671875
1924.406250	176629.609375
1923.425781	176670.093750
1922.444336	178270.250000
1921.463867	176998.140625
1920.482422	177035.953125
1919.500977	177769.140625
1918.518555	178374.718750
1917.537109	177895.359375
1916.555664	177263.406250
1915.573242	177581.109375
1914.590820	177852.875000
1913.608398	177783.578125
1912.625977	177599.828125
1911.642578	177123.593750
1910.660156	177715.671875
1909.676758	178416.875000
1908.693359	177574.640625
1907.709961	177619.812500
1906.725586	177766.609375
1905.742188	177732.953125
1904.757812	177805.984375
1903.773438	177731.671875
1902.789062	177654.828125
1901.804688	178469.265625
1900.820312	178206.984375
1899.834961	178630.140625
1898.849609	178378.046875
1897.865234	178476.218750
1896.878906	177952.781250
1895.893555	178418.765625
1894.908203	177857.468750
1893.921875	177702.062500
1892.935547	178641.906250
1891.949219	178661.296875
1890.962891	178042.031250
1889.976562	179004.109375
1888.989258	177817.500000
1888.002930	178417.046875
1887.015625	178631.437500
1886.028320	177868.359375
1885.041016	177872.625000
1884.052734	178912.140625
1883.065430	178612.515625
1882.077148	179469.343750
1881.088867	178360.156250
1880.100586	178627.359375
1879.112305	179291.500000
1878.123047	179201.921875
1877.134766	178632.015625
1876.145508	179599.109375
1875.156250	179089.968750
1874.166992	179571.484375
1873.176758	179509.687500
1872.187500	179308.968750
1871.197266	178896.171875
1870.207031	178879.937500
1869.216797	179469.609375
1868.226562	179481.031250
1867.236328	179691.812500
1866.245117	179317.125000
1865.253906	178839.140625
1864.262695	180374.125000
1863.271484	179401.812500
1862.280273	180497.406250
1861.289062	179477.500000
1860.296875	179990.437500
1859.304688	179943.734375
1858.312500	180516.875000
1857.320312	180099.750000
1856.328125	179624.828125
1855.334961	180439.453125
1854.341797	180581.515625
1853.348633	180773.859375
1852.355469	180696.828125
1851.362305	180546.812500
1850.369141	180034.531250
1849.375000	180956.359375
1848.380859	180912.015625
1847.386719	180540.750000
1846.392578	180297.828125
1845.398438	181211.406250
1844.403320	181104.171875
1843.409180	181079.890625
1842.414062	181754.125000
1841.418945	181867.906250
1840.422852	181122.625000
1839.427734	180874.828125
1838.431641	181182.015625
1837.436523	181059.812500
1836.440430	182544.000000
1835.444336	181749.031250
1834.447266	181556.515625
1833.451172	181366.562500
1832.454102	182195.000000
1831.457031	183120.937500
1830.459961	181890.265625
1829.462891	182078.890625
1828.465820	182287.500000
1827.467773	182774.203125
1826.469727	182361.218750
1825.472656	182364.234375
1824.473633	181726.031250
1823.475586	181709.109375
1822.477539	182117.828125
1821.478516	182543.906250
1820.479492	182331.593750
1819.480469	182532.265625
1818.481445	182282.484375
1817.482422	182658.187500
1816.482422	182378.437500
1815.483398	182133.796875
1814.483398	183294.390625
1813.483398	182572.187500
1812.482422	183077.437500
1811.482422	182667.890625
1810.481445	183275.359375
1809.480469	182583.625000
1808.480469	182901.156250
1807.478516	183460.812500
1806.477539	183251.250000
1805.476562	182577.453125
1804.474609	183386.421875
1803.472656	182899.984375
1802.470703	183499.015625
1801.468750	183027.671875
1800.465820	183307.218750
1799.463867	183274.953125
1798.460938	184616.453125
1797.458008	183397.375000
1796.455078	183390.015625
1795.451172	182991.406250
1794.448242	183233.250000
1793.444336	182578.218750
1792.440430	183136.343750
1791.436523	182897.406250
1790.432617	183965.640625
1789.428711	184137.359375
1788.423828	183768.937500
1787.418945	183398.140625
1786.414062	183400.656250
1785.409180	183826.046875
1784.404297	182868.468750
1783.398438	184678.859375
1782.393555	183465.359375
1781.387695	183445.468750
1780.381836	184056.843750
1779.375977	183393.234375
1778.369141	183524.890625
1777.363281	183716.109375
1776.356445	183410.531250
1775.349609	183850.000000
1774.342773	183579.250000
1773.335938	182961.078125
1772.328125	183854.546875
1771.320312	183454.890625
1770.312500	183415.093750
1769.304688	182889.125000
1768.296875	182767.593750
1767.289062	183719.796875
1766.280273	184498.093750
1765.271484	183684.750000
1764.263672	183632.515625
1763.253906	183419.250000
1762.245117	183763.468750
1761.236328	183255.468750
1760.226562	184260.828125
1759.216797	183718.234375
1758.207031	183411.015625
1757.197266	183668.265625
1756.186523	183514.593750
1755.176758	183373.343750
1754.166016	184008.953125
1753.155273	182992.015625
1752.144531	183798.093750
1751.133789	183340.359375
1750.122070	183901.343750
1749.110352	183119.921875
1748.099609	183569.515625
1747.086914	184137.546875
1746.075195	182800.625000
1745.063477	183395.750000
1744.050781	184583.359375
1743.038086	183992.734375
1742.025391	183938.015625
1741.012695	183219.359375
1740.000000	183858.265625
1738.986328	183643.203125
1737.973633	183731.656250
1736.959961	183324.281250
1735.946289	184470.718750
1734.932617	183967.187500
1733.917969	183919.890625
1732.903320	184091.984375
1731.889648	184411.875000
1730.875000	183933.312500
1729.860352	183881.109375
1728.844727	183629.406250
1727.830078	183737.328125
1726.814453	183281.359375
1725.798828	184216.453125
1724.783203	183671.937500
1723.767578	184077.515625
1722.750977	183609.468750
1721.735352	184716.015625
1720.718750	184481.671875
1719.702148	184033.468750
1718.685547	184460.718750
1717.667969	183862.703125
1716.651367	184508.562500
1715.633789	185277.046875
1714.616211	184607.937500
1713.598633	184931.484375
1712.581055	185132.109375
1711.562500	183982.046875
1710.543945	185270.421875
1709.526367	184493.843750
1708.506836	185207.343750
1707.488281	184867.843750
1706.469727	184609.421875
1705.450195	184245.593750
1704.431641	185010.109375
1703.412109	185011.703125
1702.391602	185040.265625
1701.372070	185360.515625
1700.352539	185271.343750
1699.332031	184412.750000
1698.311523	185568.390625
1697.291016	185885.843750
1696.270508	185750.078125
1695.249023	184943.390625
1694.228516	186014.843750
1693.207031	185389.531250
1692.185547	185334.687500
1691.164062	185661.593750
1690.141602	185846.468750
1689.120117	185622.765625
1688.097656	186032.562500
1687.075195	185065.531250
1686.052734	184780.937500
1685.030273	185806.640625
1684.006836	186005.921875
1682.984375	186420.140625
1681.960938	186001.109375
1680.937500	185804.500000
1679.913086	185744.734375
1678.889648	185421.250000
1677.865234	185246.796875
1676.841797	186205.000000
1675.817383	185793.734375
1674.792969	185699.812500
1673.767578	186232.906250
1672.743164	186473.093750
1671.717773	186030.328125
1670.692383	185873.015625
1669.666992	185408.562500
1668.641602	185634.062500
1667.615234	185669.406250
1666.589844	186055.593750
1665.563477	186178.515625
1664.537109	185046.984375
1663.510742	185815.406250
1662.483398	186191.531250
1661.457031	185657.015625
1660.429688	185884.531250
1659.402344	185671.484375
1658.375000	185356.312500
1657.347656	185625.093750
1656.319336	185538.671875
1655.291016	185515.484375
1654.263672	185429.093750
1653.235352	184917.281250
1652.206055	185358.453125
1651.177734	185070.406250
1650.148438	185681.437500
1649.119141	184922.140625
1648.089844	184874.750000
1647.060547	185402.921875
1646.031250	185469.562500
1645.000977	184883.171875
1643.971680	185112.484375
1642.941406	185489.750000
1641.911133	184930.328125
1640.879883	185571.890625
1639.849609	185063.562500
1638.818359	184996.765625
1637.787109	184702.078125
1636.755859	184640.187500
1635.724609	184311.718750
1634.692383	184700.640625
1633.661133	184781.718750
1632.628906	184845.796875
1631.596680	184418.203125
1630.564453	184412.078125
1629.531250	184836.921875
1628.499023	184554.765625
1627.465820	183655.531250
1626.432617	183780.203125
1625.399414	184429.812500
1624.366211	184031.796875
1623.332031	184550.515625
1622.298828	183881.781250
1621.264648	184018.343750
1620.230469	184244.281250
1619.195312	184300.968750
1618.161133	184451.859375
1617.125977	184008.375000
1616.091797	183731.703125
1615.056641	184025.078125
1614.020508	184436.671875
1612.985352	183771.359375
1611.949219	184098.343750
1610.914062	184125.953125
1609.877930	184252.468750
1608.841797	183216.109375
1607.804688	183304.140625
1606.768555	183278.781250
1605.731445	183656.093750
1604.694336	184108.015625
1603.657227	183793.250000
1602.620117	183630.421875
1601.582031	183602.593750
1600.544922	182921.890625
1599.506836	182947.156250
1598.468750	183836.968750
1597.430664	184167.843750
1596.391602	183388.781250
1595.353516	184234.687500
1594.314453	183614.718750
1593.275391	183596.484375
1592.236328	183438.718750
1591.196289	183889.531250
1590.157227	183474.437500
1589.117188	183864.953125
1588.077148	184555.828125
1587.037109	183600.015625
1585.997070	183045.875000
1584.956055	183686.031250
1583.916016	184124.171875
1582.875000	183661.468750
1581.833984	182579.359375
1580.792969	183821.765625
1579.750977	183316.125000
1578.708984	183696.296875
1577.667969	183867.562500
1576.625977	184422.625000
1575.583008	182765.781250
1574.541016	184040.359375
1573.499023	184158.640625
1572.456055	183245.953125
1571.413086	183529.718750
1570.370117	183559.343750
1569.326172	184353.343750
1568.283203	184629.562500
1567.239258	183777.437500
1566.195312	183071.703125
1565.151367	184777.515625
1564.107422	184344.781250
1563.062500	185288.546875
1562.018555	184374.812500
1560.973633	184653.015625
1559.928711	183818.640625
1558.883789	184871.843750
1557.837891	183626.359375
1556.791992	184729.406250
1555.747070	184098.796875
1554.701172	184780.671875
1553.654297	184731.000000
1552.608398	184549.906250
1551.561523	184968.531250
1550.515625	184111.484375
1549.468750	184145.515625
1548.421875	183659.000000
1547.374023	184547.750000
1546.327148	184772.609375
1545.279297	184956.812500
1544.231445	184103.031250
1543.183594	183998.609375
1542.135742	184359.343750
1541.086914	184395.609375
1540.039062	184226.796875
1538.990234	184022.281250
1537.941406	184733.093750
1536.891602	184323.609375
1535.842773	184031.000000
1534.792969	184362.625000
1533.743164	184301.140625
1532.693359	184068.218750
1531.643555	184704.390625
1530.593750	184300.062500
1529.542969	184683.671875
1528.492188	183996.296875
1527.441406	184232.296875
1526.390625	184306.453125
1525.339844	184492.343750
1524.288086	184002.843750
1523.237305	183770.265625
1522.185547	185113.781250
1521.132812	184184.718750
1520.081055	184413.203125
1519.029297	183620.000000
1517.976562	183791.484375
1516.923828	184288.265625
1515.871094	184207.859375
1514.818359	184082.359375
1513.764648	184163.406250
1512.710938	184265.765625
1511.658203	183736.921875
1510.603516	183919.968750
1509.549805	183507.578125
1508.496094	184302.468750
1507.441406	183200.140625
1506.386719	183141.312500
1505.332031	184030.625000
1504.277344	182431.234375
1503.222656	183192.390625
1502.166992	183166.750000
1501.111328	182563.171875
1500.055664	182232.125000
1499.000000	181948.562500
1497.944336	182391.859375
1496.887695	182700.078125
1495.831055	181983.484375
1494.774414	183301.968750
1493.717773	182734.546875
1492.661133	182621.437500
1491.603516	182170.203125
1490.546875	182002.843750
1489.489258	182388.703125
1488.430664	182367.890625
1487.373047	182127.312500
1486.315430	181749.765625
1485.256836	181327.468750
1484.198242	181665.843750
1483.139648	182011.156250
1482.081055	181140.421875
1481.021484	181740.640625
1479.962891	181514.578125
1478.903320	182079.093750
1477.843750	181777.546875
1476.783203	181058.562500
1475.723633	181019.078125
1474.663086	180755.578125
1473.602539	180918.890625
1472.541992	180624.859375
1471.481445	181155.781250
1470.420898	181615.812500
1469.359375	181185.140625
1468.297852	180900.656250
1467.236328	180665.718750
1466.174805	180647.484375
1465.113281	180664.562500
1464.050781	180530.984375
1462.988281	180985.796875
1461.925781	180656.890625
1460.863281	180217.531250
1459.800781	180634.500000
1458.737305	179576.781250
1457.673828	179974.890625
1456.610352	179272.640625
1455.546875	180039.671875
1454.483398	179932.203125
1453.418945	180087.921875
1452.355469	179808.968750
1451.291016	179555.953125
1450.226562	179063.484375
1449.161133	178801.296875
1448.096680	179400.718750
1447.031250	180093.796875
1445.965820	179111.109375
1444.900391	179271.375000
1443.834961	179438.625000
1442.768555	179242.265625
1441.703125	179273.437500
1440.636719	178974.000000
1439.570312	178564.500000
1438.502930	178555.906250
1437.436523	178774.609375
1436.369141	178220.078125
1435.301758	178942.375000
1434.234375	178626.875000
1433.166992	178660.390625
1432.098633	177832.328125
1431.031250	178006.406250
1429.962891	178859.109375
1428.894531	178564.937500
1427.826172	178378.484375
1426.756836	178358.171875
1425.688477	178323.812500
1424.619141	178184.250000
1423.549805	178152.250000
1422.479492	177905.234375
1421.410156	177976.125000
1420.339844	178708.218750
1419.270508	177286.125000
1418.200195	178235.296875
1417.128906	177899.703125
1416.058594	177428.796875
1414.987305	177555.671875
1413.916992	177843.546875
1412.845703	180980.687500
1411.773438	178484.296875
1410.702148	177206.515625
1409.629883	177573.515625
1408.558594	177408.687500
1407.486328	176721.656250
1406.413086	176489.421875
1405.340820	176849.265625
1404.267578	176705.640625
1403.195312	177284.312500
1402.122070	176525.656250
1401.048828	176479.953125
1399.974609	176282.906250
1398.901367	175846.109375
1397.827148	177106.421875
1396.752930	176073.812500
1395.678711	175897.890625
1394.603516	176813.171875
1393.529297	176123.093750
1392.454102	175793.734375
1391.378906	176013.250000
1390.303711	175751.437500
1389.228516	176061.515625
1388.152344	175892.734375
1387.076172	174671.421875
1386.000000	175931.687500
1384.923828	175447.109375
1383.847656	175766.218750
1382.770508	175047.312500
1381.694336	175884.062500
1380.617188	175123.593750
1379.540039	174600.109375
1378.461914	175731.125000
1377.384766	175010.515625
1376.306641	174995.250000
1375.228516	175107.546875
1374.150391	174245.968750
1373.072266	174439.468750
1371.993164	173944.531250
1370.914062	174858.687500
1369.834961	174822.562500
1368.755859	173989.593750
1367.676758	173863.296875
1366.597656	174677.218750
1365.517578	174145.671875
1364.437500	174324.968750
1363.357422	173770.515625
1362.276367	174023.843750
1361.196289	173805.093750
1360.115234	173209.375000
1359.034180	173589.843750
1357.953125	173352.781250
1356.872070	172972.453125
1355.790039	173505.296875
1354.708984	173263.734375
1353.626953	173556.000000
1352.544922	173309.875000
1351.461914	173204.734375
1350.379883	173937.937500
1349.296875	172883.703125
1348.213867	173528.968750
1347.130859	171974.296875
1346.047852	172995.640625
1344.963867	172992.140625
1343.880859	172697.968750
1342.796875	172722.187500
1341.712891	172391.265625
1340.627930	172191.859375
1339.543945	172578.062500
1338.458984	171876.234375
1337.374023	172204.734375
1336.289062	172284.265625
1335.204102	172771.515625
1334.118164	172334.984375
1333.033203	172377.593750
1331.947266	171736.375000
1330.861328	171677.781250
1329.774414	171662.921875
1328.688477	170893.296875
1327.601562	171150.046875
1326.514648	171763.234375
1325.427734	171113.593750
1324.340820	171022.921875
1323.252930	171458.765625
1322.165039	171246.234375
1321.077148	170567.234375
1319.989258	171179.828125
1318.901367	170450.531250
1317.813477	170536.906250
1316.724609	170715.109375
1315.635742	171035.593750
1314.546875	170279.265625
1313.457031	170813.156250
1312.368164	171071.468750
1311.278320	170113.625000
1310.188477	170211.375000
1309.098633	170315.953125
1308.008789	169500.906250
1306.917969	169800.468750
1305.827148	169574.937500
1304.737305	169991.234375
1303.645508	169651.171875
1302.554688	169833.593750
1301.462891	169243.984375
1300.372070	169449.296875
1299.280273	169242.359375
1298.188477	169216.359375
1297.095703	169188.062500
1296.003906	169194.109375
1294.911133	169165.828125
1293.818359	168643.359375
1292.725586	168658.625000
1291.631836	168820.250000
1290.539062	168117.468750
1289.445312	168439.156250
1288.351562	168324.125000
1287.257812	168691.343750
1286.164062	168733.968750
1285.069336	168817.671875
1283.974609	167357.296875
1282.879883	168089.781250
1281.785156	166972.531250
1280.690430	167615.781250
1279.594727	167517.000000
1278.499023	167591.671875
1277.403320	167730.187500
1276.307617	167088.484375
1275.211914	167151.765625
1274.115234	166836.468750
1273.018555	166532.687500
1271.921875	166500.265625
1270.825195	167274.687500
1269.728516	165751.828125
1268.630859	166243.578125
1267.533203	166541.515625
1266.435547	166456.703125
1265.337891	165748.000000
1264.239258	165945.656250
1263.141602	165640.187500
1262.042969	165749.031250
1260.944336	165129.671875
1259.845703	165684.468750
1258.746094	165615.796875
1257.647461	165124.140625
1256.547852	165082.875000
1255.448242	164318.671875
1254.347656	164902.609375
1253.248047	165484.062500
1252.147461	165372.296875
1251.046875	165033.375000
1249.946289	164814.953125
1248.845703	165750.234375
1247.744141	164519.109375
1246.643555	164484.765625
1245.541992	164470.843750
1244.440430	164413.812500
1243.337891	164610.906250
1242.236328	164322.468750
1241.133789	164524.015625
1240.031250	163836.593750
1238.928711	165289.656250
1237.826172	164167.093750
1236.722656	164162.265625
1235.619141	164374.953125
1234.515625	164476.562500
1233.412109	164530.546875
1232.308594	163617.453125
1231.204102	163266.250000
1230.100586	164103.734375
1228.996094	164221.093750
1227.890625	163965.000000
1226.786133	163763.296875
1225.680664	163690.609375
1224.576172	163721.984375
1223.470703	163414.125000
1222.364258	163513.359375
1221.258789	163816.015625
1220.152344	164086.906250
1219.046875	163365.609375
1217.940430	163984.421875
1216.833008	163862.046875
1215.726562	163656.140625
1214.619141	163048.343750
1213.511719	163319.031250
1212.404297	163093.000000
1211.296875	163038.562500
1210.189453	162803.625000
1209.081055	163349.375000
1207.972656	163087.375000
1206.864258	163382.531250
1205.755859	162802.671875
1204.646484	162939.937500
1203.537109	163041.093750
1202.427734	163133.171875
1201.318359	162387.000000
1200.208984	163118.984375
1199.098633	163596.156250
1197.989258	163307.453125
1196.878906	163336.328125
1195.768555	163027.500000
1194.657227	162912.343750
1193.546875	162209.875000
1192.435547	163287.406250
1191.324219	162594.109375
1190.212891	163115.609375
1189.100586	163207.390625
1187.989258	163429.546875
1186.876953	162289.359375
1185.764648	162846.468750
1184.652344	162571.921875
1183.539062	163126.515625
1182.426758	162568.984375
1181.313477	162880.796875
1180.200195	162321.250000
1179.086914	162612.781250
1177.972656	161772.875000
1176.858398	162879.062500
1175.744141	161729.750000
1174.629883	162440.671875
1173.515625	162117.296875
1172.401367	162213.390625
1171.286133	161706.281250
1170.170898	161927.953125
1169.055664	161694.515625
1167.939453	161098.125000
1166.824219	161451.953125
1165.708008	161402.421875
1164.591797	161959.875000
1163.475586	161366.078125
1162.359375	162384.546875
1161.242188	161408.078125
1160.125000	161640.562500
1159.007812	160700.375000
1157.890625	160762.859375
1156.773438	161420.328125
1155.655273	160612.625000
1154.537109	160730.968750
1153.418945	160433.421875
1152.300781	160786.437500
1151.181641	160321.359375
1150.063477	160200.546875
1148.944336	160318.812500
1147.825195	160341.000000
1146.706055	160184.484375
1145.585938	160997.109375
1144.465820	159889.500000
1143.345703	160333.562500
1142.225586	159579.062500
1141.105469	159895.828125
1139.984375	160078.625000
1138.864258	159192.968750
1137.743164	159172.890625
1136.622070	160071.406250
1135.500000	158825.078125
1134.378906	158773.843750
1133.256836	158912.031250
1132.134766	159215.031250
1131.011719	158459.812500
1129.889648	159281.718750
1128.766602	159087.890625
1127.644531	159208.046875
1126.520508	158170.656250
1125.397461	158511.265625
1124.274414	157823.703125
1123.150391	158304.390625
1122.026367	158675.906250
1120.902344	158411.218750
1119.778320	158148.859375
1118.653320	157448.625000
1117.528320	158355.671875
1116.404297	157980.093750
1115.278320	157844.625000
1114.153320	157689.203125
1113.027344	157551.593750
1111.902344	158257.890625
1110.776367	157829.359375
1109.649414	157119.046875
1108.523438	157651.906250
1107.396484	157330.218750
1106.269531	156919.890625
1105.142578	157441.375000
1104.015625	157423.718750
1102.888672	156641.046875
1101.760742	157452.703125
1100.632812	157457.203125
1099.504883	156353.578125
1098.376953	156832.453125
1097.248047	157009.843750
1096.119141	157275.781250
1094.990234	157056.593750
1093.861328	157490.671875
1092.732422	156857.531250
1091.602539	157087.859375
1090.473633	156377.546875
1089.343750	156315.796875
1088.212891	157515.000000
1087.083008	158286.890625
1085.952148	157742.718750
1084.821289	157293.796875
1083.690430	157061.687500
1082.559570	157377.765625
1081.428711	157267.234375
1080.296875	157558.859375
1079.165039	156597.875000
1078.033203	156803.343750
1076.900391	157130.203125
1075.768555	156445.765625
1074.635742	156856.421875
1073.502930	156951.328125
1072.370117	157074.890625
1071.237305	156326.953125
1070.103516	156207.937500
1068.969727	156560.890625
1067.835938	156682.187500
1066.702148	156635.890625
1065.567383	156785.781250
1064.433594	156591.812500
1063.298828	155944.031250
1062.164062	156334.062500
1061.028320	156961.796875
1059.893555	157111.453125
1058.757812	156611.531250
1057.622070	157009.937500
1056.486328	156505.796875
1055.350586	156710.406250
1054.213867	155993.093750
1053.077148	156184.515625
1051.940430	156411.046875
1050.803711	156677.062500
1049.666992	155773.375000
1048.529297	156492.203125
1047.391602	156470.140625
1046.253906	155986.656250
1045.116211	155353.953125
1043.977539	156002.015625
1042.838867	155253.140625
1041.701172	155527.703125
1040.561523	156247.796875
1039.422852	156289.421875
1038.283203	155038.468750
1037.144531	155883.296875
1036.004883	155093.546875
1034.864258	155745.031250
1033.724609	154863.484375
1032.583984	156040.953125
1031.444336	155067.578125
1030.302734	154773.984375
1029.162109	155663.750000
1028.021484	156082.140625
1026.879883	155113.828125
1025.738281	155188.328125
1024.596680	155208.062500
1023.455078	155247.468750
1022.312500	154593.000000
1021.169922	154798.812500
1020.027344	154453.171875
1018.884766	154903.937500
1017.742188	154678.671875
1016.598633	154420.687500
1015.455078	155406.875000
1014.311523	154488.656250
1013.167969	154217.718750
1012.023438	155389.109375
1010.878906	154893.062500
1009.734375	154844.984375
1008.589844	154248.718750
1007.445312	154482.453125
1006.299805	153746.750000
1005.155273	153971.734375
1004.009766	154297.031250
1002.863281	154004.687500
1001.717773	154814.171875
1000.571289	154192.453125
999.424805	154015.859375
998.278320	154537.046875
997.131836	154356.078125
995.984375	153800.281250
994.837891	154569.625000
993.690430	153349.437500
992.542969	153587.046875
991.394531	154044.531250
990.247070	154142.546875
989.098633	154403.812500
987.950195	154932.703125
986.801758	153491.765625
985.652344	153768.203125
984.502930	154346.953125
983.354492	154238.109375
982.204102	154294.593750
981.054688	154166.218750
979.905273	153572.640625
978.754883	153824.828125
977.604492	154218.156250
976.454102	154137.671875
975.302734	153596.640625
974.152344	153514.109375
973.000977	153459.843750
971.849609	153557.562500
970.697266	154326.015625
969.545898	153672.562500
968.393555	153856.968750
967.241211	154583.718750
966.088867	153498.875000
964.936523	153982.484375
963.783203	153459.765625
962.629883	153507.421875
961.476562	153962.578125
960.323242	153760.875000
959.169922	153977.437500
958.015625	153440.000000
956.861328	154161.218750
955.707031	153933.625000
954.552734	154143.468750
953.397461	153989.546875
952.242188	153952.546875
951.086914	153922.062500
949.931641	153504.281250
948.776367	153320.265625
947.620117	153731.109375
946.463867	153553.593750
945.307617	153998.812500
944.151367	152945.843750
942.995117	153159.750000
941.837891	153488.093750
940.680664	153496.546875
939.523438	153124.843750
938.365234	153539.375000
937.208008	153770.203125
936.049805	153793.703125
934.891602	153573.265625
933.733398	152569.531250
932.574219	153147.734375
931.416016	153389.187500
930.256836	152983.468750
929.097656	153686.328125
927.937500	153095.265625
926.778320	152944.187500
925.618164	152872.890625
924.458008	152153.000000
923.297852	152558.015625
922.136719	151999.984375
920.976562	151521.843750
919.815430	152372.468750
918.654297	153087.125000
917.492188	152505.718750
916.331055	151793.218750
915.168945	151825.484375
914.006836	151642.593750
912.844727	151683.453125
911.682617	151580.218750
910.519531	151857.578125
909.356445	151606.000000
908.193359	151765.031250
907.030273	151455.515625
905.866211	152125.859375
904.703125	151064.531250
903.539062	151560.718750
902.374023	151412.500000
901.209961	151223.546875
900.044922	151068.984375
898.880859	151691.406250
897.715820	151133.406250
896.549805	151066.890625
895.384766	151133.390625
894.218750	151236.312500
893.052734	151141.921875
891.886719	150243.640625
890.720703	150670.296875
889.553711	150663.921875
888.386719	150685.375000
887.219727	150835.359375
886.052734	150599.750000
884.885742	150297.828125
883.717773	150432.796875
882.549805	151535.265625
881.381836	151196.937500
880.213867	151128.343750
879.044922	150683.234375
877.875977	150854.328125
876.707031	150796.515625
875.538086	150721.625000
874.368164	150973.828125
873.199219	150529.125000
872.029297	151240.734375
870.859375	150772.625000
869.688477	150584.546875
868.518555	150836.500000
867.347656	150793.671875
866.176758	151387.109375
865.005859	150325.937500
863.833984	151279.921875
862.663086	150381.312500
861.491211	150641.531250
860.319336	150485.687500
859.146484	150619.953125
857.974609	150398.046875
856.801758	151116.421875
855.628906	151420.984375
854.456055	150930.515625
853.282227	151405.453125
852.109375	151285.843750
850.935547	150944.750000
849.761719	150582.484375
848.586914	151514.875000
847.413086	151563.484375
846.238281	151865.328125
845.063477	151056.250000
843.888672	151087.859375
842.712891	151774.640625
841.538086	151797.593750
840.362305	150957.203125
839.186523	151971.015625
838.009766	151898.234375
836.833984	151525.828125
835.657227	151604.015625
834.480469	151554.703125
833.303711	151386.453125
832.125977	151250.109375
830.949219	151833.593750
829.771484	151712.062500
828.592773	152042.671875
827.415039	151817.156250
826.237305	152221.859375
825.058594	151400.281250
823.879883	151081.671875
822.700195	151770.406250
821.521484	152077.265625
820.341797	152051.203125
819.162109	152027.265625
817.982422	151939.765625
816.802734	151805.671875
815.622070	152133.390625
814.442383	150821.812500
813.260742	152041.000000
812.080078	152630.968750
810.899414	151993.093750
809.717773	151833.718750
808.536133	152298.546875
807.354492	151411.437500
806.172852	151850.781250
804.990234	151835.312500
803.807617	151976.296875
802.625000	152322.250000
801.442383	152093.218750
800.258789	151758.609375
799.076172	151838.203125
797.892578	152004.359375
796.708008	151876.906250
795.524414	151960.640625
794.339844	151795.218750
793.155273	151973.890625
791.970703	151658.687500
790.786133	152223.437500
789.601562	151266.984375
788.416016	151692.375000
787.230469	151242.453125
786.044922	151688.765625
784.858398	151496.187500
783.672852	151535.500000
782.486328	151532.640625
781.299805	151112.640625
780.112305	151714.406250
778.925781	151473.515625
777.738281	151672.796875
776.550781	151897.250000
775.363281	152026.906250
774.174805	151653.531250
772.986328	151614.828125
771.797852	151416.265625
770.609375	151060.031250
769.420898	151198.093750
768.231445	150831.484375
767.042969	151396.250000
765.853516	151326.093750
764.663086	151779.171875
763.473633	151412.703125
762.283203	150869.921875
761.092773	150873.390625
759.902344	151271.593750
758.710938	151216.171875
757.520508	151609.953125
756.329102	151308.953125
755.137695	151117.156250
753.946289	150812.140625
752.753906	151675.500000
751.561523	151328.546875
750.369141	151415.718750
749.176758	150941.046875
747.984375	151401.312500
746.791016	151280.937500
745.597656	151372.218750
744.404297	151840.500000
743.210938	151133.687500
742.016602	151210.265625
740.822266	151106.765625
739.627930	150362.796875
738.433594	151542.328125
737.238281	150961.734375
736.043945	151406.421875
734.848633	151206.734375
733.652344	151266.406250
732.457031	151047.984375
731.260742	151253.984375
730.065430	150659.437500
728.868164	151153.781250
727.671875	150500.953125
726.475586	151339.812500
725.278320	151393.062500
724.081055	150621.515625
722.883789	151050.671875
721.685547	151419.109375
720.487305	151313.687500
719.289062	151302.203125
718.090820	151710.015625
716.892578	151126.937500
715.693359	151080.000000
714.494141	150924.671875
713.294922	151040.375000
712.095703	150891.343750
710.896484	151336.250000
709.696289	150822.609375
708.496094	151194.437500
707.295898	150899.671875
706.094727	151352.546875
704.894531	151975.937500
703.693359	150829.859375
702.492188	151933.843750
701.290039	151121.093750
700.088867	151748.203125
698.886719	151597.187500
697.684570	151519.000000
696.481445	151752.718750
695.279297	151464.562500
694.076172	151024.796875
692.873047	151688.593750
691.669922	151388.125000
690.466797	151839.703125
689.262695	150974.421875
688.058594	151486.125000
686.854492	150492.484375
685.650391	151296.750000
684.445312	151538.296875
683.240234	151694.671875
682.035156	151689.171875
680.830078	151463.812500
679.624023	151535.078125
678.418945	151407.265625
677.212891	151789.437500
676.006836	151091.656250
674.799805	151544.187500
673.593750	151936.468750
672.386719	151645.015625
671.179688	152382.968750
669.971680	151557.312500
668.764648	151334.406250
667.556641	151349.609375
666.348633	151219.921875
665.140625	151673.765625
663.931641	151539.921875
662.722656	151315.125000
661.513672	151628.046875
660.304688	151558.359375
659.095703	151013.250000
657.885742	151464.515625
656.675781	151415.546875
655.465820	150744.718750
654.255859	151949.703125
653.044922	151066.296875
651.833984	151409.718750
650.623047	150590.734375
649.412109	150977.453125
648.200195	151421.796875
646.989258	151236.671875
645.777344	151278.531250
644.565430	150548.968750
643.352539	150955.921875
642.139648	150705.015625
640.927734	151303.484375
639.713867	151287.531250
638.500977	150507.125000
637.287109	150705.578125
636.074219	150689.734375
634.860352	150484.437500
633.645508	150425.390625
632.431641	150605.156250
631.216797	150669.593750
630.001953	150279.203125
628.787109	150378.640625
627.571289	150284.656250
626.356445	149869.859375
625.140625	150413.453125
623.924805	149941.203125
622.708008	149882.296875
621.491211	149887.109375
620.275391	150444.671875
619.058594	149880.281250
617.840820	150361.609375
616.624023	150594.265625
615.406250	149773.500000
614.188477	149796.765625
612.970703	149586.015625
611.751953	150323.437500
610.533203	150219.359375
609.314453	149764.531250
608.095703	150126.140625
606.876953	149530.000000
605.657227	150155.984375
604.437500	149801.921875
603.217773	149339.375000
601.998047	150325.640625
600.777344	149990.171875
599.556641	149955.906250
598.335938	149882.734375
597.115234	149602.781250
595.893555	149171.453125
594.672852	150344.906250
593.451172	150290.109375
592.228516	149891.609375
591.006836	149800.078125
589.784180	150342.593750
588.561523	149989.265625
587.338867	150231.000000
586.116211	150094.468750
584.892578	149841.515625
583.668945	149997.281250
582.445312	149742.375000
581.221680	150527.203125
579.997070	150121.156250
578.772461	150742.250000
577.547852	150342.437500
576.323242	150348.906250
575.097656	150612.500000
573.872070	150831.078125
572.646484	150415.203125
571.420898	150809.125000
570.195312	149875.453125
568.968750	150407.953125
567.742188	150210.531250
566.515625	150096.734375
565.289062	150119.468750
564.061523	150396.843750
562.833984	150942.968750
561.606445	150189.656250
560.377930	150454.625000
559.150391	149901.171875
557.921875	149936.093750
556.693359	150758.500000
555.464844	151086.203125
554.235352	150303.156250
553.005859	150177.296875
551.776367	150419.500000
550.546875	150177.765625
549.317383	149301.953125
548.086914	149172.281250
546.856445	149444.937500
545.625977	149400.593750
544.394531	149549.203125
543.164062	149054.031250
541.932617	149760.953125
540.700195	149192.843750
539.468750	149412.390625
538.236328	148905.406250
537.004883	149210.109375
535.771484	148299.703125
534.539062	149064.750000
533.306641	148284.468750
532.073242	148015.328125
530.839844	148601.609375
529.605469	148255.500000
528.372070	148620.656250
527.137695	148055.875000
525.903320	147791.046875
524.668945	147105.125000
523.433594	147818.421875
522.199219	147839.171875
520.963867	147874.078125
519.728516	147797.687500
518.492188	147249.937500
517.255859	147450.765625
516.020508	147999.343750
514.783203	147130.375000
513.546875	146443.656250
512.309570	146753.593750
511.072266	146754.250000
509.834961	147185.218750
508.597656	146896.921875
507.359375	147309.515625
506.122070	146980.906250
504.883789	147056.171875
503.644531	146241.265625
502.406250	147456.843750
501.166992	146997.265625
499.927734	146069.843750
498.688477	146637.296875
497.448242	146942.390625
496.208984	146293.718750
494.968750	146749.921875
493.727539	146923.796875
492.487305	147260.812500
491.246094	147019.500000
490.004883	146979.687500
488.763672	146653.921875
487.522461	147383.343750
486.280273	146572.437500
485.038086	147297.562500
483.795898	146975.968750
482.553711	146678.640625
481.310547	147588.375000
480.067383	147280.968750
478.824219	147546.765625
477.581055	147233.437500
476.336914	147278.015625
475.092773	147109.546875
473.848633	147035.562500
472.604492	147552.250000
471.360352	147249.218750
470.115234	147424.250000
468.870117	147460.671875
467.625000	146521.453125
466.378906	146473.718750
465.132812	146941.718750
463.886719	146885.875000
462.640625	146489.046875
461.394531	147247.562500
460.147461	146939.031250
458.900391	146809.031250
457.653320	146260.156250
456.405273	146454.968750
455.158203	146593.609375
453.910156	145808.671875
452.662109	146874.703125
451.413086	145805.640625
450.165039	146032.375000
448.916016	145782.578125
447.666992	145652.953125
446.416992	145721.468750
445.167969	145525.875000
443.917969	144986.312500
442.667969	145236.875000
441.416992	145001.468750
440.166992	145287.921875
438.916016	144718.796875
437.665039	144615.484375
436.414062	144412.328125
435.162109	144752.578125
433.910156	144036.156250
432.658203	144548.062500
431.406250	144259.171875
430.154297	144491.390625
428.901367	144338.312500
427.648438	144217.234375
426.395508	143320.140625
425.141602	143478.515625
423.888672	143239.984375
422.634766	143755.203125
421.379883	143712.046875
420.125977	143423.750000
418.871094	143328.859375
417.616211	143672.296875
416.361328	142577.421875
415.106445	143426.718750
413.850586	142304.406250
412.594727	143314.671875
411.338867	142961.109375
410.083008	143194.734375
408.826172	142972.625000
407.569336	143015.171875
406.312500	142638.046875
405.055664	143066.406250
403.797852	143337.531250
402.540039	143044.015625
401.282227	143793.984375
400.024414	143448.812500
398.765625	142285.265625
397.506836	142737.000000
396.248047	143412.968750
394.989258	142970.812500
393.729492	143289.125000
392.469727	142992.046875
391.209961	142889.531250
389.950195	142669.984375
388.690430	142510.046875
387.429688	143401.281250
386.168945	143025.093750
384.907227	142232.718750
383.646484	142449.562500
382.384766	141948.906250
381.123047	142161.734375
379.861328	141934.687500
378.598633	141648.296875
377.336914	142059.062500
376.074219	142536.984375
374.810547	142569.343750
373.547852	142724.375000
372.284180	142362.875000
371.020508	142395.218750
369.756836	141250.609375
368.493164	142012.890625
367.228516	141883.109375
365.963867	142158.656250
364.699219	142645.562500
363.433594	142786.453125
362.167969	143035.953125
360.903320	143034.484375
359.636719	143623.531250
358.371094	144867.937500
357.104492	144763.421875
355.837891	145444.562500
354.571289	146190.562500
353.304688	147244.078125
352.037109	148070.312500
350.769531	148478.093750
349.501953	148988.250000
348.234375	149908.312500
346.965820	152036.390625
345.697266	152959.453125
344.428711	153068.328125
343.159180	152410.765625
341.890625	150628.687500
340.621094	147937.437500
339.351562	145940.296875
338.081055	144560.093750
336.811523	143143.000000
335.541016	142332.562500
334.270508	140705.906250
332.999023	140218.843750
331.728516	140491.125000
330.457031	139890.218750
329.185547	139226.625000
327.913086	139962.812500
326.641602	139193.312500
325.369141	138229.578125
324.096680	139160.015625
322.824219	138387.156250
321.550781	138394.218750
320.277344	138782.171875
319.003906	137844.906250
317.730469	138497.765625
316.456055	138526.343750
315.181641	137825.078125
313.907227	138228.437500
312.632812	138119.750000
311.357422	138387.578125
310.082031	137853.484375
308.806641	137447.000000
307.531250	137254.250000
306.254883	137994.203125
304.979492	137772.031250
303.702148	137140.609375
302.425781	137249.609375
301.149414	137560.203125
299.872070	137050.515625
298.594727	137564.562500
297.316406	137620.546875
296.039062	138081.453125
294.760742	138551.953125
293.482422	139149.390625
292.204102	139451.343750
290.924805	139542.062500
289.645508	140004.093750
288.366211	139502.562500
287.086914	139442.765625
285.806641	139482.593750
284.526367	139739.187500
283.246094	139251.734375
281.965820	138823.031250
280.684570	138117.312500
279.404297	137874.375000
278.122070	137155.437500
276.840820	137304.843750
275.559570	136982.203125
274.277344	137591.781250
272.995117	137598.671875
271.711914	137595.812500
270.429688	137633.890625
269.146484	138790.375000
267.863281	140043.812500
266.580078	140879.953125
265.295898	143219.156250
264.011719	145528.265625
262.727539	149880.453125
261.443359	155624.515625
260.158203	164178.203125
258.873047	174178.062500
257.587891	186504.390625
256.302734	197019.296875
255.016602	202663.281250
253.730469	201079.062500
252.444336	192340.765625
251.158203	180228.312500
249.871094	169031.718750
248.584961	160267.593750
247.297852	153798.609375
246.009766	148621.453125
244.722656	144791.687500
243.434570	141561.250000
242.146484	139707.984375
240.857422	137502.296875
239.569336	136603.031250
238.280273	134749.828125
236.991211	133343.343750
235.701172	133269.390625
234.412109	132144.796875
233.122070	131493.531250
231.832031	131051.781250
230.541016	130602.445312
229.250977	130029.296875
227.959961	129531.898438
226.668945	129071.476562
225.376953	128086.593750
224.085938	127870.476562
222.793945	127400.937500
221.501953	127506.203125
220.208984	127303.851562
218.916992	126652.867188
217.624023	126377.265625
216.331055	125755.695312
215.037109	126230.335938
213.743164	125960.750000
212.450195	125185.023438
211.155273	124421.179688
209.861328	124368.390625
208.566406	123844.437500
207.271484	123890.242188
205.976562	123685.078125
204.681641	123520.507812
203.385742	123103.226562
202.089844	122958.117188
200.793945	122959.648438
199.497070	122857.039062
198.201172	122517.296875
196.904297	122356.960938
195.607422	121899.867188
194.309570	121128.835938
193.011719	121142.242188
191.713867	120986.125000
190.416016	120806.945312
189.118164	121128.476562
187.819336	120837.664062
186.520508	119882.906250
185.221680	119971.554688
183.921875	119888.914062
182.622070	119444.648438
181.322266	119941.054688
180.022461	118845.054688
178.721680	119741.273438
177.421875	119618.359375
176.121094	119359.039062
174.819336	118365.804688
173.518555	119021.265625
172.216797	118666.156250
170.915039	119081.242188
169.613281	118993.125000
168.310547	118580.617188
167.007812	118010.875000
165.705078	118373.945312
164.402344	118105.664062
163.098633	117561.257812
161.794922	116878.976562
160.491211	117464.382812
159.187500	117138.945312
157.882812	116922.882812
156.578125	116281.460938
155.273438	116165.265625
153.968750	116535.664062
152.663086	115913.828125
151.357422	115673.281250
150.051758	115151.390625
148.746094	115458.515625
147.439453	114866.046875
146.132812	114679.437500
144.826172	114858.289062
143.518555	114476.648438
142.211914	113649.585938
140.904297	113857.187500
139.596680	113460.656250
138.288086	113232.453125
136.979492	112675.664062
135.670898	111865.000000
134.362305	111686.882812
133.053711	111758.992188
131.744141	109686.867188
130.434570	108123.328125
129.124023	106938.289062
127.814453	106034.210938
126.503906	104163.171875
125.193359	102477.882812
123.882812	100707.414062
122.571289	99046.304688
121.259766	97292.421875
119.948242	94147.781250
