#Wave		#Intensity
2198.949219	268798.125000
2198.015625	269612.625000
2197.083008	270225.125000
2196.149414	269484.781250
2195.215820	269146.406250
2194.282227	270339.625000
2193.347656	270536.562500
2192.414062	270500.593750
2191.479492	269918.687500
2190.545898	271132.312500
2189.611328	271096.218750
2188.675781	270939.750000
2187.741211	271080.187500
2186.806641	272241.937500
2185.871094	270657.781250
2184.935547	272016.968750
2184.000000	272149.062500
2183.064453	272334.531250
2182.128906	272263.468750
2181.193359	272277.875000
2180.256836	272925.218750
2179.320312	272765.937500
2178.383789	273007.156250
2177.447266	273368.375000
2176.510742	272675.343750
2175.573242	273791.593750
2174.636719	273973.718750
2173.699219	272992.843750
2172.761719	273385.718750
2171.824219	272986.531250
2170.886719	274139.031250
2169.948242	273798.468750
2169.010742	274273.500000
2168.072266	274332.687500
2167.133789	273520.718750
2166.195312	274296.500000
2165.256836	274776.406250
2164.317383	275077.718750
2163.378906	274433.843750
2162.439453	274104.281250
2161.500000	274567.875000
2160.560547	274413.968750
2159.620117	274973.093750
2158.680664	274933.562500
2157.740234	275396.656250
2156.800781	275612.281250
2155.860352	275710.843750
2154.919922	275687.093750
2153.978516	274640.156250
2153.038086	277039.937500
2152.096680	275599.906250
2151.156250	275828.500000
2150.214844	275565.687500
2149.273438	276925.343750
2148.331055	276726.125000
2147.389648	276418.125000
2146.447266	278291.781250
2145.505859	276701.968750
2144.563477	277211.250000
2143.621094	278152.687500
2142.677734	277611.281250
2141.735352	278775.062500
2140.791992	276897.500000
2139.848633	278649.437500
2138.906250	278527.031250
2137.961914	276706.093750
2137.018555	277982.875000
2136.075195	278390.375000
2135.130859	279205.593750
2134.186523	279493.562500
2133.242188	279108.968750
2132.297852	279508.000000
2131.353516	279104.968750
2130.409180	279630.875000
2129.463867	279172.375000
2128.518555	279534.062500
2127.573242	279729.000000
2126.627930	280399.812500
2125.682617	280951.437500
2124.736328	280693.937500
2123.791016	281472.593750
2122.844727	281717.156250
2121.898438	280733.093750
2120.952148	281426.750000
2120.005859	281298.781250
2119.058594	281469.218750
2118.112305	282151.812500
2117.165039	282955.593750
2116.217773	283574.312500
2115.270508	282606.875000
2114.323242	282803.281250
2113.375000	283345.156250
2112.426758	283731.250000
2111.479492	283399.937500
2110.531250	282947.437500
2109.583008	283333.343750
2108.633789	284454.468750
2107.685547	282671.218750
2106.736328	283763.062500
2105.787109	284375.093750
2104.837891	283759.531250
2103.888672	283262.687500
2102.939453	283969.218750
2101.989258	284254.312500
2101.040039	284952.500000
2100.089844	285461.000000
2099.139648	285806.156250
2098.189453	285135.781250
2097.239258	286080.531250
2096.288086	286443.812500
2095.336914	286509.812500
2094.386719	285881.781250
2093.435547	286407.812500
2092.483398	287348.843750
2091.532227	287288.500000
2090.581055	287028.500000
2089.628906	287892.750000
2088.676758	287603.843750
2087.724609	287737.750000
2086.772461	288422.875000
2085.819336	288333.437500
2084.867188	288611.437500
2083.914062	289175.343750
2082.960938	287808.250000
2082.007812	288419.281250
2081.054688	288906.812500
2080.101562	289874.000000
2079.147461	288908.781250
2078.194336	289665.906250
2077.240234	290265.562500
2076.286133	289476.281250
2075.331055	289703.718750
2074.376953	290083.000000
2073.421875	289521.968750
2072.467773	289597.375000
2071.512695	290599.468750
2070.557617	291525.312500
2069.602539	290051.062500
2068.646484	290987.125000
2067.691406	290544.187500
2066.735352	291471.968750
2065.779297	291128.437500
2064.823242	292555.187500
2063.867188	291808.968750
2062.910156	291724.312500
2061.954102	292167.562500
2060.997070	293906.625000
2060.040039	292536.281250
2059.083008	293151.531250
2058.125977	294899.937500
2057.167969	293767.718750
2056.209961	293549.593750
2055.252930	293991.906250
2054.294922	294428.812500
2053.336914	293164.343750
2052.377930	295302.187500
2051.419922	293688.468750
2050.460938	293251.437500
2049.501953	295727.093750
2048.542969	294630.281250
2047.583984	294029.093750
2046.625000	294579.968750
2045.665039	295716.906250
2044.706055	296012.000000
2043.746094	296525.750000
2042.786133	294968.937500
2041.826172	295620.656250
2040.865234	296220.093750
2039.905273	295910.906250
2038.944336	295786.562500
2037.983398	296880.000000
2037.022461	296552.593750
2036.061523	297416.625000
2035.100586	297416.875000
2034.138672	297125.937500
2033.176758	296915.656250
2032.215820	297071.937500
2031.253906	297420.500000
2030.291016	297254.406250
2029.329102	297506.656250
2028.366211	298249.718750
2027.404297	298190.031250
2026.441406	298891.125000
2025.478516	298184.906250
2024.514648	298151.187500
2023.551758	298026.625000
2022.587891	298885.500000
2021.625000	299523.562500
2020.661133	298965.625000
2019.696289	299637.156250
2018.732422	299107.875000
2017.768555	299426.531250
2016.803711	299330.343750
2015.838867	299817.281250
2014.874023	299423.031250
2013.909180	300446.031250
2012.944336	300536.187500
2011.978516	299911.500000
2011.013672	299786.750000
2010.047852	300645.843750
2009.082031	300086.156250
2008.116211	300833.562500
2007.149414	299075.968750
2006.183594	300772.750000
2005.216797	300847.093750
2004.250000	300445.562500
2003.283203	301960.156250
2002.316406	301095.781250
2001.349609	302312.468750
2000.381836	300347.343750
1999.414062	301150.281250
1998.446289	302412.812500
1997.478516	301724.656250
1996.510742	301225.281250
1995.542969	301764.093750
1994.574219	301618.562500
1993.605469	301922.187500
1992.636719	302597.343750
1991.667969	302265.937500
1990.699219	302156.468750
1989.729492	303133.000000
1988.760742	303740.343750
1987.791016	303047.906250
1986.821289	301922.593750
1985.851562	303282.500000
1984.880859	304170.281250
1983.911133	304392.937500
1982.940430	302902.281250
1981.969727	303269.312500
1980.999023	303504.875000
1980.028320	304322.250000
1979.057617	303442.750000
1978.085938	303688.406250
1977.115234	304850.156250
1976.143555	303440.937500
1975.171875	304360.468750
1974.199219	305130.468750
1973.227539	304243.968750
1972.254883	305283.718750
1971.283203	304950.218750
1970.310547	305105.187500
1969.337891	305784.406250
1968.364258	305373.875000
1967.391602	305454.156250
1966.417969	305565.218750
1965.444336	305005.968750
1964.470703	306303.343750
1963.497070	306565.656250
1962.523438	307390.000000
1961.548828	307477.500000
1960.575195	306825.937500
1959.600586	306841.625000
1958.625977	308001.343750
1957.651367	305952.250000
1956.675781	306950.156250
1955.701172	307637.468750
1954.725586	306978.781250
1953.750000	307191.718750
1952.774414	306200.218750
1951.798828	308431.968750
1950.822266	308372.968750
1949.846680	307530.312500
1948.870117	308400.937500
1947.893555	309046.000000
1946.916992	309191.656250
1945.940430	307829.843750
1944.962891	307770.937500
1943.986328	308633.062500
1943.008789	309200.687500
1942.031250	308517.500000
1941.053711	309271.593750
1940.075195	308212.812500
1939.097656	308803.093750
1938.119141	309871.062500
1937.140625	309354.375000
1936.162109	308919.625000
1935.183594	309202.812500
1934.205078	310160.093750
1933.225586	310133.937500
1932.246094	309461.875000
1931.266602	309543.062500
1930.287109	309044.875000
1929.307617	310664.718750
1928.328125	309523.562500
1927.347656	309650.531250
1926.367188	310440.531250
1925.386719	310812.062500
1924.406250	309648.687500
1923.425781	310213.906250
1922.444336	310271.781250
1921.463867	310184.375000
1920.482422	310907.125000
1919.500977	310620.937500
1918.518555	311012.281250
1917.537109	310845.812500
1916.555664	310636.125000
1915.573242	309902.125000
1914.590820	311117.843750
1913.608398	311104.093750
1912.625977	310146.500000
1911.642578	311959.250000
1910.660156	310808.500000
1909.676758	310766.812500
1908.693359	311353.062500
1907.709961	310220.812500
1906.725586	310123.312500
1905.742188	310124.906250
1904.757812	310141.718750
1903.773438	309698.781250
1902.789062	310835.656250
1901.804688	311116.375000
1900.820312	310716.625000
1899.834961	311839.968750
1898.849609	311554.406250
1897.865234	311017.718750
1896.878906	311183.968750
1895.893555	310107.250000
1894.908203	311366.593750
1893.921875	311251.187500
1892.935547	310755.531250
1891.949219	311626.281250
1890.962891	312544.843750
1889.976562	312137.843750
1888.989258	311085.000000
1888.002930	311491.468750
1887.015625	311550.843750
1886.028320	310192.218750
1885.041016	310732.781250
1884.052734	311493.375000
1883.065430	311719.687500
1882.077148	310065.875000
1881.088867	311848.187500
1880.100586	312327.218750
1879.112305	311475.843750
1878.123047	312908.000000
1877.134766	313093.312500
1876.145508	313523.718750
1875.156250	311222.062500
1874.166992	312430.843750
1873.176758	312810.562500
1872.187500	313243.218750
1871.197266	312094.750000
1870.207031	312969.187500
1869.216797	312841.093750
1868.226562	313419.750000
1867.236328	312918.093750
1866.245117	313933.031250
1865.253906	312921.812500
1864.262695	313855.656250
1863.271484	313941.812500
1862.280273	313498.406250
1861.289062	315283.750000
1860.296875	313716.062500
1859.304688	312635.312500
1858.312500	314198.093750
1857.320312	313989.250000
1856.328125	314095.343750
1855.334961	314324.781250
1854.341797	314617.062500
1853.348633	314901.687500
1852.355469	314232.250000
1851.362305	314972.312500
1850.369141	315203.843750
1849.375000	314831.531250
1848.380859	314089.562500
1847.386719	316848.500000
1846.392578	315558.281250
1845.398438	315540.562500
1844.403320	315351.937500
1843.409180	316382.187500
1842.414062	316537.656250
1841.418945	316479.531250
1840.422852	316250.625000
1839.427734	315491.906250
1838.431641	316654.250000
1837.436523	316879.781250
1836.440430	317205.593750
1835.444336	317084.625000
1834.447266	317304.906250
1833.451172	316022.406250
1832.454102	316829.687500
1831.457031	315928.875000
1830.459961	317202.218750
1829.462891	317344.531250
1828.465820	318103.312500
1827.467773	317611.343750
1826.469727	318254.562500
1825.472656	317802.812500
1824.473633	318884.062500
1823.475586	318767.875000
1822.477539	316568.593750
1821.478516	318558.156250
1820.479492	318184.250000
1819.480469	318611.281250
1818.481445	318697.843750
1817.482422	318201.531250
1816.482422	317567.781250
1815.483398	318899.812500
1814.483398	318981.250000
1813.483398	318875.125000
1812.482422	318019.218750
1811.482422	319899.937500
1810.481445	318619.406250
1809.480469	319787.375000
1808.480469	319721.125000
1807.478516	318920.687500
1806.477539	318812.156250
1805.476562	319215.343750
1804.474609	319970.343750
1803.472656	319449.875000
1802.470703	319498.406250
1801.468750	318544.156250
1800.465820	319308.625000
1799.463867	319175.125000
1798.460938	320560.000000
1797.458008	319017.875000
1796.455078	318675.062500
1795.451172	320096.656250
1794.448242	319262.968750
1793.444336	319685.000000
1792.440430	319409.531250
1791.436523	319032.062500
1790.432617	319302.000000
1789.428711	319776.000000
1788.423828	319356.281250
1787.418945	319190.531250
1786.414062	319835.906250
1785.409180	319598.000000
1784.404297	319996.812500
1783.398438	319256.593750
1782.393555	318944.281250
1781.387695	318689.218750
1780.381836	320188.875000
1779.375977	319506.250000
1778.369141	319186.593750
1777.363281	318618.625000
1776.356445	319645.312500
1775.349609	320254.437500
1774.342773	318785.312500
1773.335938	319081.625000
1772.328125	318067.375000
1771.320312	318758.187500
1770.312500	319141.125000
1769.304688	320161.406250
1768.296875	319522.125000
1767.289062	318526.000000
1766.280273	317822.750000
1765.271484	319486.968750
1764.263672	318441.750000
1763.253906	319290.031250
1762.245117	318876.968750
1761.236328	318830.625000
1760.226562	319022.031250
1759.216797	319404.031250
1758.207031	318753.500000
1757.197266	318360.625000
1756.186523	317668.437500
1755.176758	318983.187500
1754.166016	319537.968750
1753.155273	319345.562500
1752.144531	319153.187500
1751.133789	319116.625000
1750.122070	318783.406250
1749.110352	318571.437500
1748.099609	318937.781250
1747.086914	318913.625000
1746.075195	319568.812500
1745.063477	319154.250000
1744.050781	319586.875000
1743.038086	319589.718750
1742.025391	320385.000000
1741.012695	319395.406250
1740.000000	318986.093750
1738.986328	319766.218750
1737.973633	319130.000000
1736.959961	318920.718750
1735.946289	319929.750000
1734.932617	319126.125000
1733.917969	319723.062500
1732.903320	319116.937500
1731.889648	319331.625000
1730.875000	319878.875000
1729.860352	319561.218750
1728.844727	320384.093750
1727.830078	319283.312500
1726.814453	318680.281250
1725.798828	319160.625000
1724.783203	319468.500000
1723.767578	319156.125000
1722.750977	319390.031250
1721.735352	320337.281250
1720.718750	319680.500000
1719.702148	320256.000000
1718.685547	320260.843750
1717.667969	319203.718750
1716.651367	319906.750000
1715.633789	320855.281250
1714.616211	320346.468750
1713.598633	320835.156250
1712.581055	320383.000000
1711.562500	320233.031250
1710.543945	321767.375000
1709.526367	320259.687500
1708.506836	320777.343750
1707.488281	322129.187500
1706.469727	321056.437500
1705.450195	321414.218750
1704.431641	321700.718750
1703.412109	321418.218750
1702.391602	321608.968750
1701.372070	321311.843750
1700.352539	321129.968750
1699.332031	321340.250000
1698.311523	320754.187500
1697.291016	321290.218750
1696.270508	321870.125000
1695.249023	322227.000000
1694.228516	321063.343750
1693.207031	321344.312500
1692.185547	321453.843750
1691.164062	321556.000000
1690.141602	323209.218750
1689.120117	322019.437500
1688.097656	322510.250000
1687.075195	320494.468750
1686.052734	321188.281250
1685.030273	322038.281250
1684.006836	321775.968750
1682.984375	321447.750000
1681.960938	322104.187500
1680.937500	322723.750000
1679.913086	321499.187500
1678.889648	322294.437500
1677.865234	321614.781250
1676.841797	323061.437500
1675.817383	322464.843750
1674.792969	322007.531250
1673.767578	323141.031250
1672.743164	322849.593750
1671.717773	321641.281250
1670.692383	321469.687500
1669.666992	321597.968750
1668.641602	322408.718750
1667.615234	321644.843750
1666.589844	321358.781250
1665.563477	321859.687500
1664.537109	321551.750000
1663.510742	322293.531250
1662.483398	321510.781250
1661.457031	320983.937500
1660.429688	321774.062500
1659.402344	320115.687500
1658.375000	321540.718750
1657.347656	321658.875000
1656.319336	320850.218750
1655.291016	321347.781250
1654.263672	321857.312500
1653.235352	321462.312500
1652.206055	321089.312500
1651.177734	321336.125000
1650.148438	321036.156250
1649.119141	321122.500000
1648.089844	321507.593750
1647.060547	320420.875000
1646.031250	320337.312500
1645.000977	321309.750000
1643.971680	320257.625000
1642.941406	320239.593750
1641.911133	320197.312500
1640.879883	319548.593750
1639.849609	320251.031250
1638.818359	320778.593750
1637.787109	320180.968750
1636.755859	319258.718750
1635.724609	319885.500000
1634.692383	318978.156250
1633.661133	319798.562500
1632.628906	319666.687500
1631.596680	319358.031250
1630.564453	318940.531250
1629.531250	318767.656250
1628.499023	317900.125000
1627.465820	319566.875000
1626.432617	318159.843750
1625.399414	318451.718750
1624.366211	317843.625000
1623.332031	318928.718750
1622.298828	317447.781250
1621.264648	318341.531250
1620.230469	315816.968750
1619.195312	318610.250000
1618.161133	318092.125000
1617.125977	317731.156250
1616.091797	317812.375000
1615.056641	318193.031250
1614.020508	317665.625000
1612.985352	317684.000000
1611.949219	317521.312500
1610.914062	318184.062500
1609.877930	317393.937500
1608.841797	316473.843750
1607.804688	316523.687500
1606.768555	317202.968750
1605.731445	317973.625000
1604.694336	317637.437500
1603.657227	317879.812500
1602.620117	317269.000000
1601.582031	317923.375000
1600.544922	317763.250000
1599.506836	318002.968750
1598.468750	316751.937500
1597.430664	316772.625000
1596.391602	317922.375000
1595.353516	316960.781250
1594.314453	317970.468750
1593.275391	317625.187500
1592.236328	316837.343750
1591.196289	315686.562500
1590.157227	317607.125000
1589.117188	316136.843750
1588.077148	317015.718750
1587.037109	316735.750000
1585.997070	317808.843750
1584.956055	317151.593750
1583.916016	316878.937500
1582.875000	317021.875000
1581.833984	316391.500000
1580.792969	317067.437500
1579.750977	317296.656250
1578.708984	316616.125000
1577.667969	317140.468750
1576.625977	318494.750000
1575.583008	317548.062500
1574.541016	318645.125000
1573.499023	317468.531250
1572.456055	317908.250000
1571.413086	317782.125000
1570.370117	317656.000000
1569.326172	318462.062500
1568.283203	317715.312500
1567.239258	318449.187500
1566.195312	318229.593750
1565.151367	318687.718750
1564.107422	317702.000000
1563.062500	318375.468750
1562.018555	317533.718750
1560.973633	317922.187500
1559.928711	318162.187500
1558.883789	318337.500000
1557.837891	319165.625000
1556.791992	318188.125000
1555.747070	318549.781250
1554.701172	318748.750000
1553.654297	319234.406250
1552.608398	318639.875000
1551.561523	318578.281250
1550.515625	318810.468750
1549.468750	318770.343750
1548.421875	318785.125000
1547.374023	318386.875000
1546.327148	318838.500000
1545.279297	318216.031250
1544.231445	317822.843750
1543.183594	319414.562500
1542.135742	318670.656250
1541.086914	317891.218750
1540.039062	319117.281250
1538.990234	318230.718750
1537.941406	318367.000000
1536.891602	318913.093750
1535.842773	318939.562500
1534.792969	318430.031250
1533.743164	318794.781250
1532.693359	319276.062500
1531.643555	318869.062500
1530.593750	318862.125000
1529.542969	318445.812500
1528.492188	319388.406250
1527.441406	318834.125000
1526.390625	318104.000000
1525.339844	319046.125000
1524.288086	319966.468750
1523.237305	318989.218750
1522.185547	318323.718750
1521.132812	317953.156250
1520.081055	318381.125000
1519.029297	317991.625000
1517.976562	317683.031250
1516.923828	317666.656250
1515.871094	317028.156250
1514.818359	316810.062500
1513.764648	318051.875000
1512.710938	316511.750000
1511.658203	317228.718750
1510.603516	317731.937500
1509.549805	318244.437500
1508.496094	316802.562500
1507.441406	317741.812500
1506.386719	318289.562500
1505.332031	316255.812500
1504.277344	316455.250000
1503.222656	316979.187500
1502.166992	316778.000000
1501.111328	316171.843750
1500.055664	315388.281250
1499.000000	316091.937500
1497.944336	315327.593750
1496.887695	315503.156250
1495.831055	314947.406250
1494.774414	314555.093750
1493.717773	314799.250000
1492.661133	315024.406250
1491.603516	314998.812500
1490.546875	315327.843750
1489.489258	315299.812500
1488.430664	314437.437500
1487.373047	314144.875000
1486.315430	314516.312500
1485.256836	314306.468750
1484.198242	314087.250000
1483.139648	313077.031250
1482.081055	314019.718750
1481.021484	314128.750000
1479.962891	312290.593750
1478.903320	313447.593750
1477.843750	313087.156250
1476.783203	313031.093750
1475.723633	313614.187500
1474.663086	311985.250000
1473.602539	312577.718750
1472.541992	313247.781250
1471.481445	312644.906250
1470.420898	312202.468750
1469.359375	311152.375000
1468.297852	311548.906250
1467.236328	311763.937500
1466.174805	311677.468750
1465.113281	311341.500000
1464.050781	312055.406250
1462.988281	311893.625000
1461.925781	311484.781250
1460.863281	311151.375000
1459.800781	311566.062500
1458.737305	311077.500000
1457.673828	310448.062500
1456.610352	310103.250000
1455.546875	310595.343750
1454.483398	309804.125000
1453.418945	310718.968750
1452.355469	309777.625000
1451.291016	310104.937500
1450.226562	309748.781250
1449.161133	309991.437500
1448.096680	310344.312500
1447.031250	310462.343750
1445.965820	309249.781250
1444.900391	309595.531250
1443.834961	310522.906250
1442.768555	309791.750000
1441.703125	307541.312500
1440.636719	309593.906250
1439.570312	309786.843750
1438.502930	309349.250000
1437.436523	309120.343750
1436.369141	308235.531250
1435.301758	308353.562500
1434.234375	308384.906250
1433.166992	309132.718750
1432.098633	308564.531250
1431.031250	308474.062500
1429.962891	307697.875000
1428.894531	307939.812500
1427.826172	307241.187500
1426.756836	306753.312500
1425.688477	307855.906250
1424.619141	308460.031250
1423.549805	307502.250000
1422.479492	307666.750000
1421.410156	307494.656250
1420.339844	306787.562500
1419.270508	306935.718750
1418.200195	306910.968750
1417.128906	307168.781250
1416.058594	307027.218750
1414.987305	307572.031250
1413.916992	306739.562500
1412.845703	306677.468750
1411.773438	306713.375000
1410.702148	306266.375000
1409.629883	305817.187500
1408.558594	305575.687500
1407.486328	305558.062500
1406.413086	305165.156250
1405.340820	306245.375000
1404.267578	305414.375000
1403.195312	305375.781250
1402.122070	304787.468750
1401.048828	304963.250000
1399.974609	304316.968750
1398.901367	305612.625000
1397.827148	304992.031250
1396.752930	304895.312500
1395.678711	304137.781250
1394.603516	303299.062500
1393.529297	305007.718750
1392.454102	303890.031250
1391.378906	303902.812500
1390.303711	303011.218750
1389.228516	303756.343750
1388.152344	302446.750000
1387.076172	303496.031250
1386.000000	301991.781250
1384.923828	303075.625000
1383.847656	302839.968750
1382.770508	303045.531250
1381.694336	302313.125000
1380.617188	303103.625000
1379.540039	301754.156250
1378.461914	301556.000000
1377.384766	301870.593750
1376.306641	301890.468750
1375.228516	302030.937500
1374.150391	301900.062500
1373.072266	301954.687500
1371.993164	301024.218750
1370.914062	301764.875000
1369.834961	300264.812500
1368.755859	300822.312500
1367.676758	301326.312500
1366.597656	300535.687500
1365.517578	300585.750000
1364.437500	300253.843750
1363.357422	299280.937500
1362.276367	299891.156250
1361.196289	299682.156250
1360.115234	299149.343750
1359.034180	300527.062500
1357.953125	300248.625000
1356.872070	299225.843750
1355.790039	299500.156250
1354.708984	298713.593750
1353.626953	298648.218750
1352.544922	298733.031250
1351.461914	298499.031250
1350.379883	299179.625000
1349.296875	298495.343750
1348.213867	299600.468750
1347.130859	298980.968750
1346.047852	297994.750000
1344.963867	298441.718750
1343.880859	298330.250000
1342.796875	297939.718750
1341.712891	298395.656250
1340.627930	298247.312500
1339.543945	297889.250000
1338.458984	298964.906250
1337.374023	298752.000000
1336.289062	298064.500000
1335.204102	297089.312500
1334.118164	296317.156250
1333.033203	297691.406250
1331.947266	296702.968750
1330.861328	296847.406250
1329.774414	296952.656250
1328.688477	296010.875000
1327.601562	295805.625000
1326.514648	296663.156250
1325.427734	296381.937500
1324.340820	296333.031250
1323.252930	296684.187500
1322.165039	296200.812500
1321.077148	295609.562500
1319.989258	296050.250000
1318.901367	295284.625000
1317.813477	296177.656250
1316.724609	294546.468750
1315.635742	294745.875000
1314.546875	295078.343750
1313.457031	295812.343750
1312.368164	295107.187500
1311.278320	295505.906250
1310.188477	293589.781250
1309.098633	293779.875000
1308.008789	294206.093750
1306.917969	293384.875000
1305.827148	294035.656250
1304.737305	293343.062500
1303.645508	293200.718750
1302.554688	292877.375000
1301.462891	293853.000000
1300.372070	292867.750000
1299.280273	292361.437500
1298.188477	292503.218750
1297.095703	291827.718750
1296.003906	291724.625000
1294.911133	292401.875000
1293.818359	291182.218750
1292.725586	291328.593750
1291.631836	291692.187500
1290.539062	289945.062500
1289.445312	291006.031250
1288.351562	292720.312500
1287.257812	291504.156250
1286.164062	290569.437500
1285.069336	291008.093750
1283.974609	289907.062500
1282.879883	289628.531250
1281.785156	290459.781250
1280.690430	290793.062500
1279.594727	289418.906250
1278.499023	288006.468750
1277.403320	289923.406250
1276.307617	289551.593750
1275.211914	288472.843750
1274.115234	287820.906250
1273.018555	287429.093750
1271.921875	288564.750000
1270.825195	287888.062500
1269.728516	287421.218750
1268.630859	287540.062500
1267.533203	288328.593750
1266.435547	287123.968750
1265.337891	286427.593750
1264.239258	286831.062500
1263.141602	287430.156250
1262.042969	286677.156250
1260.944336	286625.250000
1259.845703	285963.656250
1258.746094	286457.781250
1257.647461	286728.843750
1256.547852	285897.000000
1255.448242	285288.250000
1254.347656	286104.843750
1253.248047	285084.906250
1252.147461	285564.968750
1251.046875	284586.375000
1249.946289	285645.500000
1248.845703	284812.531250
1247.744141	285448.906250
1246.643555	285635.562500
1245.541992	283625.062500
1244.440430	284787.718750
1243.337891	283846.718750
1242.236328	283913.218750
1241.133789	284739.500000
1240.031250	283703.750000
1238.928711	282938.156250
1237.826172	283464.906250
1236.722656	283991.437500
1235.619141	284733.062500
1234.515625	284216.968750
1233.412109	283490.437500
1232.308594	283135.531250
1231.204102	283561.968750
1230.100586	283189.093750
1228.996094	283583.625000
1227.890625	283885.250000
1226.786133	282596.062500
1225.680664	282372.875000
1224.576172	283341.750000
1223.470703	283794.656250
1222.364258	282883.968750
1221.258789	282685.718750
1220.152344	282724.812500
1219.046875	283046.406250
1217.940430	282943.062500
1216.833008	283488.093750
1215.726562	282316.375000
1214.619141	282143.187500
1213.511719	283040.250000
1212.404297	283523.875000
1211.296875	283219.625000
1210.189453	283224.625000
1209.081055	282584.375000
1207.972656	283112.781250
1206.864258	282432.156250
1205.755859	282649.187500
1204.646484	282374.656250
1203.537109	282943.281250
1202.427734	282977.531250
1201.318359	283241.593750
1200.208984	282358.843750
1199.098633	284073.468750
1197.989258	282769.718750
1196.878906	282984.062500
1195.768555	283108.250000
1194.657227	283068.062500
1193.546875	282253.750000
1192.435547	280676.937500
1191.324219	282043.187500
1190.212891	280892.093750
1189.100586	281801.250000
1187.989258	280850.687500
1186.876953	281734.812500
1185.764648	281600.437500
1184.652344	282333.500000
1183.539062	282133.875000
1182.426758	281145.875000
1181.313477	281402.437500
1180.200195	281699.343750
1179.086914	280469.437500
1177.972656	281740.562500
1176.858398	280544.750000
1175.744141	281389.031250
1174.629883	280889.156250
1173.515625	281230.593750
1172.401367	280679.343750
1171.286133	279971.281250
1170.170898	280140.062500
1169.055664	280378.250000
1167.939453	279336.687500
1166.824219	279057.343750
1165.708008	279647.250000
1164.591797	280653.562500
1163.475586	278734.812500
1162.359375	279169.968750
1161.242188	279806.375000
1160.125000	279404.062500
1159.007812	278796.000000
1157.890625	279380.656250
1156.773438	278685.562500
1155.655273	277693.250000
1154.537109	276958.437500
1153.418945	277905.125000
1152.300781	278594.406250
1151.181641	278018.468750
1150.063477	278256.093750
1148.944336	277461.468750
1147.825195	277891.187500
1146.706055	276728.375000
1145.585938	277055.343750
1144.465820	276766.000000
1143.345703	274840.656250
1142.225586	277194.062500
1141.105469	275813.718750
1139.984375	276138.250000
1138.864258	275753.375000
1137.743164	275072.031250
1136.622070	274544.750000
1135.500000	275150.125000
1134.378906	275302.781250
1133.256836	274842.593750
1132.134766	275008.593750
1131.011719	274786.937500
1129.889648	274324.812500
1128.766602	274314.875000
1127.644531	274269.312500
1126.520508	274237.125000
1125.397461	273588.437500
1124.274414	274235.031250
1123.150391	273706.687500
1122.026367	273463.250000
1120.902344	272799.562500
1119.778320	273383.500000
1118.653320	272653.375000
1117.528320	272730.312500
1116.404297	273151.687500
1115.278320	272190.875000
1114.153320	273205.312500
1113.027344	271909.437500
1111.902344	272059.687500
1110.776367	272514.031250
1109.649414	273325.625000
1108.523438	272108.281250
1107.396484	271539.343750
1106.269531	271086.000000
1105.142578	271857.281250
1104.015625	271903.000000
1102.888672	271061.750000
1101.760742	271273.875000
1100.632812	271357.343750
1099.504883	272358.281250
1098.376953	270440.593750
1097.248047	271829.031250
1096.119141	272071.750000
1094.990234	270952.406250
1093.861328	272187.156250
1092.732422	270959.687500
1091.602539	271589.718750
1090.473633	271695.000000
1089.343750	271665.281250
1088.212891	271929.781250
1087.083008	272176.468750
1085.952148	272142.218750
1084.821289	271431.406250
1083.690430	270846.843750
1082.559570	270649.250000
1081.428711	270511.406250
1080.296875	271043.031250
1079.165039	270421.375000
1078.033203	271164.812500
1076.900391	270686.843750
1075.768555	269964.000000
1074.635742	270426.750000
1073.502930	270176.468750
1072.370117	269661.468750
1071.237305	270130.593750
1070.103516	270727.500000
1068.969727	271189.593750
1067.835938	270491.750000
1066.702148	270770.750000
1065.567383	270333.312500
1064.433594	270290.468750
1063.298828	269994.250000
1062.164062	269975.687500
1061.028320	269329.406250
1059.893555	269562.000000
1058.757812	270274.468750
1057.622070	269813.343750
1056.486328	269301.781250
1055.350586	270341.750000
1054.213867	269847.843750
1053.077148	269037.343750
1051.940430	269370.781250
1050.803711	269446.812500
1049.666992	269850.375000
1048.529297	269899.875000
1047.391602	269395.531250
1046.253906	269284.687500
1045.116211	269114.531250
1043.977539	268267.937500
1042.838867	269602.343750
1041.701172	268141.156250
1040.561523	267756.156250
1039.422852	269182.062500
1038.283203	268724.562500
1037.144531	268552.468750
1036.004883	267911.000000
1034.864258	267811.468750
1033.724609	267893.968750
1032.583984	267814.187500
1031.444336	268010.593750
1030.302734	268084.218750
1029.162109	267428.125000
1028.021484	266349.406250
1026.879883	267227.125000
1025.738281	267482.562500
1024.596680	267683.156250
1023.455078	266767.156250
1022.312500	267103.468750
1021.169922	266413.281250
1020.027344	266552.593750
1018.884766	267768.187500
1017.742188	265894.906250
1016.598633	266556.875000
1015.455078	266245.625000
1014.311523	266561.843750
1013.167969	266126.093750
1012.023438	266947.000000
1010.878906	266314.687500
1009.734375	265291.562500
1008.589844	266109.937500
1007.445312	266015.281250
1006.299805	265811.437500
1005.155273	265932.937500
1004.009766	266307.500000
1002.863281	265756.781250
1001.717773	266030.875000
1000.571289	264845.625000
999.424805	265390.187500
998.278320	266063.187500
997.131836	265471.531250
995.984375	265547.031250
994.837891	265515.718750
993.690430	265636.906250
992.542969	265350.687500
991.394531	266201.468750
990.247070	265196.593750
989.098633	266286.593750
987.950195	264078.281250
986.801758	265603.312500
985.652344	265928.812500
984.502930	265005.343750
983.354492	264784.812500
982.204102	265475.593750
981.054688	265320.281250
979.905273	264634.531250
978.754883	265979.187500
977.604492	265093.625000
976.454102	264829.812500
975.302734	265650.093750
974.152344	264934.468750
973.000977	265439.531250
971.849609	265019.437500
970.697266	264627.750000
969.545898	265034.875000
968.393555	264678.000000
967.241211	264750.843750
966.088867	264806.281250
964.936523	265345.312500
963.783203	264234.000000
962.629883	265193.531250
961.476562	264852.125000
960.323242	264712.375000
959.169922	264204.312500
958.015625	266029.687500
956.861328	264819.750000
955.707031	264829.500000
954.552734	264735.312500
953.397461	264617.312500
952.242188	263668.218750
951.086914	263890.187500
949.931641	264053.656250
948.776367	264238.687500
947.620117	264575.031250
946.463867	263849.500000
945.307617	263909.031250
944.151367	263374.062500
942.995117	263928.562500
941.837891	262812.500000
940.680664	263464.093750
939.523438	263830.312500
938.365234	263757.968750
937.208008	263005.500000
936.049805	263621.968750
934.891602	263159.000000
933.733398	262193.343750
932.574219	263279.968750
931.416016	262769.812500
930.256836	262956.500000
929.097656	262543.625000
927.937500	263025.625000
926.778320	262487.812500
925.618164	262333.843750
924.458008	262675.531250
923.297852	261982.937500
922.136719	261383.187500
920.976562	261373.781250
919.815430	261146.875000
918.654297	261703.703125
917.492188	261444.515625
916.331055	261000.312500
915.168945	261365.328125
914.006836	261136.421875
912.844727	260432.234375
911.682617	261642.265625
910.519531	260381.343750
909.356445	260247.328125
908.193359	259406.218750
907.030273	259472.265625
905.866211	260535.203125
904.703125	260564.468750
903.539062	260299.468750
902.374023	260150.515625
901.209961	259673.125000
900.044922	258925.421875
898.880859	259113.718750
897.715820	259859.843750
896.549805	259116.781250
895.384766	259660.968750
894.218750	258772.359375
893.052734	258840.375000
891.886719	258458.156250
890.720703	258946.296875
889.553711	258270.593750
888.386719	258132.906250
887.219727	258378.734375
886.052734	258909.312500
884.885742	258974.984375
883.717773	257820.250000
882.549805	257577.828125
881.381836	258307.156250
880.213867	258257.312500
879.044922	258984.078125
877.875977	258628.203125
876.707031	257838.312500
875.538086	258062.234375
874.368164	258803.421875
873.199219	257928.390625
872.029297	258273.953125
870.859375	258023.234375
869.688477	258291.718750
868.518555	258737.359375
867.347656	258437.546875
866.176758	257542.140625
865.005859	257511.609375
863.833984	258575.968750
862.663086	258278.500000
861.491211	257580.015625
860.319336	258509.359375
859.146484	258529.796875
857.974609	259450.078125
856.801758	258596.218750
855.628906	258996.015625
854.456055	258357.765625
853.282227	259426.500000
852.109375	258730.875000
850.935547	259166.515625
849.761719	258992.921875
848.586914	258476.578125
847.413086	258918.375000
846.238281	259253.562500
845.063477	259307.734375
843.888672	259806.531250
842.712891	258575.718750
841.538086	259272.250000
840.362305	258835.109375
839.186523	259803.437500
838.009766	259578.921875
836.833984	258602.125000
835.657227	259616.671875
834.480469	259311.531250
833.303711	259403.703125
832.125977	259323.812500
830.949219	259738.656250
829.771484	259535.578125
828.592773	259555.437500
827.415039	259573.140625
826.237305	259565.359375
825.058594	259330.609375
823.879883	259787.328125
822.700195	259103.046875
821.521484	259277.640625
820.341797	259751.062500
819.162109	259626.625000
817.982422	260286.234375
816.802734	259172.359375
815.622070	259622.093750
814.442383	258377.421875
813.260742	258971.093750
812.080078	260119.187500
810.899414	259421.171875
809.717773	259377.296875
808.536133	259519.625000
807.354492	259490.546875
806.172852	259139.968750
804.990234	260075.218750
803.807617	258735.187500
802.625000	258959.875000
801.442383	260004.500000
800.258789	259461.812500
799.076172	259470.718750
797.892578	260303.406250
796.708008	259541.296875
795.524414	260056.906250
794.339844	259176.875000
793.155273	258622.203125
791.970703	258420.156250
790.786133	259433.500000
789.601562	258868.500000
788.416016	259364.609375
787.230469	258751.312500
786.044922	258850.875000
784.858398	258143.015625
783.672852	258436.515625
782.486328	258080.875000
781.299805	258193.078125
780.112305	258684.375000
778.925781	258535.250000
777.738281	258870.453125
776.550781	258056.062500
775.363281	257898.671875
774.174805	257490.906250
772.986328	258023.796875
771.797852	257332.140625
770.609375	257015.109375
769.420898	257583.500000
768.231445	257367.437500
767.042969	256308.500000
765.853516	257698.437500
764.663086	256744.875000
763.473633	257531.234375
762.283203	257290.109375
761.092773	257038.562500
759.902344	257570.328125
758.710938	256611.312500
757.520508	257054.765625
756.329102	256889.437500
755.137695	256495.468750
753.946289	256993.203125
752.753906	257041.906250
751.561523	257293.968750
750.369141	257535.453125
749.176758	256743.375000
747.984375	257005.812500
746.791016	256813.406250
745.597656	257222.359375
744.404297	256567.046875
743.210938	256303.593750
742.016602	256270.562500
740.822266	256377.796875
739.627930	256656.609375
738.433594	256680.000000
737.238281	255981.500000
736.043945	257059.343750
734.848633	256800.234375
733.652344	256618.593750
732.457031	256878.171875
731.260742	256451.984375
730.065430	256437.671875
728.868164	257169.359375
727.671875	256814.343750
726.475586	255809.828125
725.278320	255774.718750
724.081055	255781.375000
722.883789	256679.453125
721.685547	256750.609375
720.487305	255934.796875
719.289062	255638.828125
718.090820	256707.281250
716.892578	256580.187500
715.693359	256303.000000
714.494141	256230.218750
713.294922	256101.171875
712.095703	256718.296875
710.896484	256047.390625
709.696289	256389.265625
708.496094	256643.515625
707.295898	256020.859375
706.094727	257012.171875
704.894531	257093.328125
703.693359	255998.421875
702.492188	256337.765625
701.290039	257007.812500
700.088867	256396.109375
698.886719	256716.437500
697.684570	256013.515625
696.481445	256745.437500
695.279297	256425.234375
694.076172	256876.203125
692.873047	256022.031250
691.669922	256998.515625
690.466797	256607.828125
689.262695	256985.687500
688.058594	255758.328125
686.854492	256289.812500
685.650391	256495.203125
684.445312	256449.406250
683.240234	256389.093750
682.035156	255741.703125
680.830078	256579.609375
679.624023	256303.609375
678.418945	256232.953125
677.212891	255896.968750
676.006836	256535.203125
674.799805	255788.968750
673.593750	255326.843750
672.386719	256406.000000
671.179688	255960.484375
669.971680	255647.640625
668.764648	255643.359375
667.556641	255901.937500
666.348633	255825.156250
665.140625	255899.437500
663.931641	255957.125000
662.722656	255677.656250
661.513672	255896.640625
660.304688	255859.156250
659.095703	255925.031250
657.885742	255529.984375
656.675781	255221.859375
655.465820	254860.109375
654.255859	255198.734375
653.044922	255793.312500
651.833984	254527.234375
650.623047	254834.734375
649.412109	254502.250000
648.200195	255381.250000
646.989258	254365.796875
645.777344	254425.500000
644.565430	254316.046875
643.352539	253233.281250
642.139648	254563.156250
640.927734	253596.171875
639.713867	253892.906250
638.500977	254304.921875
637.287109	253251.968750
636.074219	254084.109375
634.860352	253509.359375
633.645508	253270.421875
632.431641	253840.625000
631.216797	253111.828125
630.001953	252101.359375
628.787109	253391.546875
627.571289	252908.000000
626.356445	252879.156250
625.140625	251890.000000
623.924805	252560.375000
622.708008	253388.765625
621.491211	253057.687500
620.275391	253197.281250
619.058594	251925.437500
617.840820	251884.406250
616.624023	251539.453125
615.406250	252145.265625
614.188477	251781.890625
612.970703	252009.750000
611.751953	252483.781250
610.533203	251388.031250
609.314453	251226.062500
608.095703	251201.531250
606.876953	252017.750000
605.657227	251865.968750
604.437500	251027.531250
603.217773	250841.109375
601.998047	251550.187500
600.777344	251578.828125
599.556641	252271.093750
598.335938	251869.515625
597.115234	251709.671875
595.893555	251136.359375
594.672852	251596.859375
593.451172	251750.218750
592.228516	252384.312500
591.006836	251608.734375
589.784180	251796.750000
588.561523	251397.796875
587.338867	252051.875000
586.116211	251483.359375
584.892578	252729.812500
583.668945	251493.203125
582.445312	251642.125000
581.221680	252164.765625
579.997070	251986.750000
578.772461	252666.312500
577.547852	252349.437500
576.323242	251891.828125
575.097656	252056.765625
573.872070	252176.750000
572.646484	252247.703125
571.420898	252826.453125
570.195312	251924.625000
568.968750	252079.140625
567.742188	251599.687500
566.515625	250837.125000
565.289062	250983.578125
564.061523	251675.921875
562.833984	251573.656250
561.606445	251178.171875
560.377930	251436.375000
559.150391	251203.906250
557.921875	250607.187500
556.693359	251227.531250
555.464844	251550.593750
554.235352	250687.656250
553.005859	251329.968750
551.776367	249330.734375
550.546875	249991.328125
549.317383	249816.296875
548.086914	249391.343750
546.856445	249809.734375
545.625977	249139.125000
544.394531	248903.390625
543.164062	249323.640625
541.932617	249313.296875
540.700195	249095.906250
539.468750	248793.343750
538.236328	247902.421875
537.004883	248273.718750
535.771484	248433.906250
534.539062	247983.609375
533.306641	247602.390625
532.073242	247746.375000
530.839844	247930.812500
529.605469	246696.656250
528.372070	245426.484375
527.137695	247175.062500
525.903320	246073.343750
524.668945	245640.265625
523.433594	246903.921875
522.199219	245732.000000
520.963867	246029.781250
519.728516	245884.312500
518.492188	244798.187500
517.255859	245417.546875
516.020508	245355.156250
514.783203	244989.484375
513.546875	245012.078125
512.309570	244210.031250
511.072266	245067.312500
509.834961	243582.656250
508.597656	244841.671875
507.359375	244926.812500
506.122070	243959.906250
504.883789	243774.640625
503.644531	243518.781250
502.406250	243553.625000
501.166992	243947.578125
499.927734	243954.062500
498.688477	243331.234375
497.448242	244559.828125
496.208984	244519.781250
494.968750	242427.656250
493.727539	243115.562500
492.487305	243853.562500
491.246094	244329.390625
490.004883	243608.531250
488.763672	243753.906250
487.522461	244283.812500
486.280273	243686.140625
485.038086	243960.203125
483.795898	244099.328125
482.553711	245017.015625
481.310547	244793.781250
480.067383	244321.203125
478.824219	243876.968750
477.581055	244787.937500
476.336914	244580.937500
475.092773	244568.937500
473.848633	244526.812500
472.604492	244472.625000
471.360352	243938.390625
470.115234	243506.765625
468.870117	244416.515625
467.625000	244358.328125
466.378906	243609.718750
465.132812	243481.453125
463.886719	244099.562500
462.640625	243353.406250
461.394531	242882.265625
460.147461	242914.593750
458.900391	242826.625000
457.653320	242684.546875
456.405273	242496.406250
455.158203	242679.015625
453.910156	242673.234375
452.662109	242523.234375
451.413086	242631.609375
450.165039	241676.781250
448.916016	241356.875000
447.666992	241293.250000
446.416992	240917.468750
445.167969	241110.015625
443.917969	241014.421875
442.667969	240664.890625
441.416992	239635.640625
440.166992	240214.062500
438.916016	239567.015625
437.665039	239441.781250
436.414062	239158.750000
435.162109	239347.234375
433.910156	238435.171875
432.658203	238691.593750
431.406250	238470.765625
430.154297	238066.359375
428.901367	237560.312500
427.648438	237954.343750
426.395508	237673.921875
425.141602	236918.875000
423.888672	237254.937500
422.634766	237212.031250
421.379883	236467.437500
420.125977	236147.640625
418.871094	237358.343750
417.616211	236946.828125
416.361328	235670.953125
415.106445	236028.625000
413.850586	236260.718750
412.594727	236008.937500
411.338867	235713.453125
410.083008	236335.500000
408.826172	234868.109375
407.569336	235428.390625
406.312500	235489.203125
405.055664	234891.781250
403.797852	235042.125000
402.540039	235269.937500
401.282227	235344.609375
400.024414	235135.093750
398.765625	236137.515625
397.506836	235314.140625
396.248047	234896.203125
394.989258	235072.078125
393.729492	235325.296875
392.469727	235145.734375
391.209961	234255.796875
389.950195	235005.015625
388.690430	234414.953125
387.429688	234717.578125
386.168945	234437.109375
384.907227	233901.000000
383.646484	234066.750000
382.384766	234595.093750
381.123047	233825.406250
379.861328	233305.609375
378.598633	233746.625000
377.336914	233229.000000
376.074219	233828.218750
374.810547	233385.968750
373.547852	232567.843750
372.284180	232982.796875
371.020508	232606.218750
369.756836	232087.343750
368.493164	231695.234375
367.228516	232523.250000
365.963867	232024.421875
364.699219	232288.718750
363.433594	231944.250000
362.167969	232230.171875
360.903320	232877.468750
359.636719	232752.281250
358.371094	232743.625000
357.104492	232900.812500
355.837891	233555.343750
354.571289	234716.796875
353.304688	235276.000000
352.037109	235949.406250
350.769531	235303.000000
349.501953	235871.609375
348.234375	236102.828125
346.965820	237337.312500
345.697266	238967.484375
344.428711	238689.562500
343.159180	237495.609375
341.890625	236189.812500
340.621094	234638.328125
339.351562	231677.609375
338.081055	230290.953125
336.811523	229757.062500
335.541016	228408.671875
334.270508	227062.734375
332.999023	227704.140625
331.728516	227053.109375
330.457031	226821.156250
329.185547	226681.687500
327.913086	225341.234375
326.641602	224799.187500
325.369141	225970.750000
324.096680	224973.000000
322.824219	225106.984375
321.550781	224685.140625
320.277344	225048.812500
319.003906	225157.156250
317.730469	225216.359375
316.456055	224264.968750
315.181641	224416.515625
313.907227	223657.843750
312.632812	223774.125000
311.357422	224055.062500
310.082031	223867.328125
308.806641	222634.968750
307.531250	223944.750000
306.254883	222681.468750
304.979492	223030.859375
303.702148	222812.109375
302.425781	222540.562500
301.149414	222752.703125
299.872070	222481.250000
298.594727	221924.171875
297.316406	221915.156250
296.039062	222495.000000
294.760742	223000.265625
293.482422	222420.000000
292.204102	222674.812500
290.924805	222327.421875
289.645508	222818.625000
288.366211	222225.109375
287.086914	222354.671875
285.806641	221925.531250
284.526367	222047.281250
283.246094	221881.937500
281.965820	221345.718750
280.684570	219699.093750
279.404297	219690.375000
278.122070	219792.875000
276.840820	218523.937500
275.559570	218882.093750
274.277344	217880.937500
272.995117	218660.171875
271.711914	217676.984375
270.429688	217992.109375
269.146484	219045.578125
267.863281	219675.890625
266.580078	220843.546875
265.295898	222497.578125
264.011719	224380.734375
262.727539	226105.468750
261.443359	231095.390625
260.158203	237856.125000
258.873047	245596.765625
257.587891	255057.843750
256.302734	262152.375000
255.016602	265487.562500
253.730469	264239.343750
252.444336	256707.671875
251.158203	247282.187500
249.871094	239585.609375
248.584961	232299.906250
247.297852	227269.921875
246.009766	223115.671875
244.722656	220675.359375
243.434570	217989.453125
242.146484	216736.796875
240.857422	214937.437500
239.569336	214380.343750
238.280273	212326.062500
236.991211	212314.578125
235.701172	210245.968750
234.412109	210500.421875
233.122070	209380.656250
231.832031	209900.656250
230.541016	208566.359375
229.250977	208018.984375
227.959961	206544.171875
226.668945	206868.703125
225.376953	206203.843750
224.085938	205674.718750
222.793945	205248.359375
221.501953	205348.406250
220.208984	204960.937500
218.916992	204099.765625
217.624023	203331.734375
216.331055	203149.765625
215.037109	202658.593750
213.743164	202076.765625
212.450195	201342.515625
211.155273	200511.937500
209.861328	200452.312500
208.566406	201055.078125
207.271484	199427.609375
205.976562	199696.359375
204.681641	198837.890625
203.385742	198676.343750
202.089844	198192.640625
200.793945	197658.984375
199.497070	197615.343750
198.201172	197110.906250
196.904297	196334.812500
195.607422	195639.984375
194.309570	195669.953125
193.011719	195917.625000
191.713867	195323.390625
190.416016	195216.640625
189.118164	195173.468750
187.819336	193490.046875
186.520508	194756.062500
185.221680	193716.109375
183.921875	193269.171875
182.622070	193135.937500
181.322266	192993.140625
180.022461	192502.328125
178.721680	192511.578125
177.421875	192639.984375
176.121094	191499.906250
174.819336	191803.296875
173.518555	191901.000000
172.216797	191445.468750
170.915039	190160.515625
169.613281	191206.937500
168.310547	190477.265625
167.007812	190868.734375
165.705078	190041.531250
164.402344	190066.468750
163.098633	189069.000000
161.794922	190248.609375
160.491211	189201.625000
159.187500	188595.937500
157.882812	188251.171875
156.578125	187538.578125
155.273438	187188.359375
153.968750	187050.906250
152.663086	186019.078125
151.357422	185127.421875
150.051758	184641.984375
148.746094	183815.984375
147.439453	184150.062500
146.132812	184078.343750
144.826172	183840.218750
143.518555	183328.656250
142.211914	183069.703125
140.904297	183141.609375
139.596680	182747.062500
138.288086	181981.890625
136.979492	181664.125000
135.670898	180242.234375
134.362305	179390.078125
133.053711	177304.562500
131.744141	176090.515625
130.434570	173994.953125
129.124023	171982.281250
127.814453	170241.328125
126.503906	167445.984375
125.193359	164375.109375
123.882812	161587.671875
122.571289	159289.437500
121.259766	155573.687500
119.948242	150711.921875
