#Wave		#Intensity
2199.120117	313493.437500
2198.186523	314332.093750
2197.252930	313677.781250
2196.320312	314373.625000
2195.386719	314043.562500
2194.453125	313531.500000
2193.518555	314331.375000
2192.584961	315120.281250
2191.650391	314691.218750
2190.716797	314334.562500
2189.782227	315759.718750
2188.847656	315344.125000
2187.912109	314340.312500
2186.977539	315914.406250
2186.041992	315726.218750
2185.107422	315522.031250
2184.171875	316539.187500
2183.236328	315891.375000
2182.299805	315887.593750
2181.364258	317211.312500
2180.427734	316411.437500
2179.492188	316717.281250
2178.555664	317794.531250
2177.619141	317424.656250
2176.681641	319000.468750
2175.745117	316866.750000
2174.807617	318081.906250
2173.871094	316773.312500
2172.933594	317801.343750
2171.996094	317442.468750
2171.057617	317939.500000
2170.120117	317801.937500
2169.181641	318029.531250
2168.244141	318323.656250
2167.305664	319121.187500
2166.367188	318850.281250
2165.427734	319122.750000
2164.489258	319839.812500
2163.550781	319236.093750
2162.611328	319431.125000
2161.671875	319985.406250
2160.732422	319315.406250
2159.792969	318815.906250
2158.852539	320114.750000
2157.913086	320447.718750
2156.972656	320666.187500
2156.032227	319959.375000
2155.091797	321730.250000
2154.151367	320162.375000
2153.209961	320024.625000
2152.269531	321366.781250
2151.328125	320102.562500
2150.386719	321659.312500
2149.445312	321895.781250
2148.503906	321494.968750
2147.561523	321614.562500
2146.620117	322283.500000
2145.677734	322854.000000
2144.735352	322203.843750
2143.792969	322561.906250
2142.850586	322166.625000
2141.908203	322803.000000
2140.964844	323531.937500
2140.021484	322526.968750
2139.078125	323618.750000
2138.134766	324500.843750
2137.191406	323633.937500
2136.248047	323924.968750
2135.303711	323047.843750
2134.359375	325060.093750
2133.415039	324180.406250
2132.470703	324291.062500
2131.526367	325182.468750
2130.582031	324419.625000
2129.636719	324493.093750
2128.691406	325831.000000
2127.746094	325274.718750
2126.800781	325839.843750
2125.855469	325156.812500
2124.910156	326083.875000
2123.963867	325800.125000
2123.017578	326510.031250
2122.071289	326051.906250
2121.125000	324996.875000
2120.178711	327035.062500
2119.232422	325951.156250
2118.285156	326145.531250
2117.337891	326749.000000
2116.390625	326671.281250
2115.443359	326530.250000
2114.496094	328162.281250
2113.548828	328105.437500
2112.600586	328834.593750
2111.652344	327696.406250
2110.704102	328014.000000
2109.755859	329378.062500
2108.807617	329832.312500
2107.859375	329390.406250
2106.910156	329660.031250
2105.960938	329513.343750
2105.011719	331191.968750
2104.062500	330265.531250
2103.113281	330655.875000
2102.163086	330235.250000
2101.213867	330167.500000
2100.263672	331128.687500
2099.313477	330823.937500
2098.363281	331618.937500
2097.413086	331201.093750
2096.461914	332566.375000
2095.511719	332450.843750
2094.560547	332792.781250
2093.609375	332861.250000
2092.658203	332735.187500
2091.706055	332874.531250
2090.754883	332456.875000
2089.802734	333281.750000
2088.850586	333271.218750
2087.898438	333355.187500
2086.946289	334024.531250
2085.994141	333874.718750
2085.041016	334661.812500
2084.088867	336067.875000
2083.135742	336615.562500
2082.182617	334773.531250
2081.229492	335955.875000
2080.275391	335603.906250
2079.322266	335776.375000
2078.368164	335906.812500
2077.414062	336367.406250
2076.459961	337249.687500
2075.505859	336832.218750
2074.551758	337412.875000
2073.596680	336613.156250
2072.642578	337523.531250
2071.687500	336923.000000
2070.732422	337495.312500
2069.777344	337057.250000
2068.821289	338150.031250
2067.866211	338219.500000
2066.910156	337998.593750
2065.954102	338643.375000
2064.998047	339104.906250
2064.041992	339466.906250
2063.084961	340338.468750
2062.128906	339484.875000
2061.171875	339175.062500
2060.214844	337937.906250
2059.257812	340193.468750
2058.300781	339954.156250
2057.343750	340075.281250
2056.385742	341760.125000
2055.427734	341029.906250
2054.469727	340960.218750
2053.511719	341274.093750
2052.553711	341032.156250
2051.594727	341885.843750
2050.636719	342003.750000
2049.677734	342444.937500
2048.718750	342979.843750
2047.759766	343603.156250
2046.800781	341656.562500
2045.840820	341881.187500
2044.881836	343348.406250
2043.921875	342947.500000
2042.961914	342799.312500
2042.001953	343684.937500
2041.041016	343632.968750
2040.081055	343216.593750
2039.120117	343557.718750
2038.159180	343019.156250
2037.198242	344523.093750
2036.237305	344470.968750
2035.276367	344252.406250
2034.314453	344330.343750
2033.353516	345011.375000
2032.391602	344805.812500
2031.429688	345229.218750
2030.467773	345556.312500
2029.504883	345418.250000
2028.542969	345578.937500
2027.580078	344773.437500
2026.617188	346024.750000
2025.654297	345845.125000
2024.691406	344873.812500
2023.727539	346303.500000
2022.764648	346757.000000
2021.800781	345780.812500
2020.836914	347821.718750
2019.873047	348176.125000
2018.909180	347858.812500
2017.944336	345967.875000
2016.980469	346099.468750
2016.015625	348944.500000
2015.050781	347248.656250
2014.085938	347890.281250
2013.121094	346822.062500
2012.155273	347942.656250
2011.190430	348431.031250
2010.224609	348750.937500
2009.258789	349050.000000
2008.292969	348808.031250
2007.326172	350364.531250
2006.360352	349097.875000
2005.393555	349513.031250
2004.426758	349193.500000
2003.459961	349305.906250
2002.493164	349188.187500
2001.526367	349199.718750
2000.558594	348508.250000
1999.591797	349375.187500
1998.624023	349794.843750
1997.656250	349883.718750
1996.687500	350024.187500
1995.719727	350872.125000
1994.750977	350067.406250
1993.783203	350930.500000
1992.814453	350766.093750
1991.845703	350645.593750
1990.875977	352173.718750
1989.907227	350587.843750
1988.937500	351462.906250
1987.968750	352458.875000
1986.999023	352523.750000
1986.029297	353129.906250
1985.058594	351805.437500
1984.088867	352470.750000
1983.118164	352131.031250
1982.147461	351915.062500
1981.176758	353210.968750
1980.206055	352917.593750
1979.235352	352850.906250
1978.263672	352871.718750
1977.292969	353077.812500
1976.321289	353222.062500
1975.349609	352833.687500
1974.376953	353384.343750
1973.405273	353312.406250
1972.433594	353844.750000
1971.460938	353754.718750
1970.488281	354060.593750
1969.515625	354656.718750
1968.542969	354859.500000
1967.569336	353828.968750
1966.596680	355508.812500
1965.623047	355975.843750
1964.649414	355081.718750
1963.675781	355163.500000
1962.701172	354901.281250
1961.727539	356469.031250
1960.752930	357461.437500
1959.779297	354189.468750
1958.804688	356587.593750
1957.829102	356627.906250
1956.854492	357337.468750
1955.879883	355313.750000
1954.904297	357351.093750
1953.928711	357924.281250
1952.953125	356967.468750
1951.977539	356894.843750
1951.000977	357170.656250
1950.025391	357456.562500
1949.048828	357217.437500
1948.072266	357848.843750
1947.095703	358231.718750
1946.119141	357071.156250
1945.141602	358533.875000
1944.165039	358427.718750
1943.187500	357817.656250
1942.209961	357880.468750
1941.232422	359137.375000
1940.254883	358005.906250
1939.276367	358367.687500
1938.297852	358527.375000
1937.320312	358676.812500
1936.341797	358675.406250
1935.362305	358865.593750
1934.383789	359188.500000
1933.405273	359077.187500
1932.425781	358879.093750
1931.446289	358456.406250
1930.466797	360815.750000
1929.487305	359009.812500
1928.506836	358293.906250
1927.527344	359488.812500
1926.546875	359035.718750
1925.566406	359671.593750
1924.585938	360345.500000
1923.605469	359499.906250
1922.624023	359559.343750
1921.642578	360222.656250
1920.662109	359912.500000
1919.680664	359974.343750
1918.698242	360025.968750
1917.716797	358901.125000
1916.735352	360630.656250
1915.752930	361501.750000
1914.770508	360000.531250
1913.788086	360879.031250
1912.805664	360854.031250
1911.822266	360874.812500
1910.839844	360262.281250
1909.856445	360806.968750
1908.873047	360809.906250
1907.889648	361295.781250
1906.906250	362094.093750
1905.921875	361237.906250
1904.938477	360653.812500
1903.954102	360834.531250
1902.969727	361401.187500
1901.985352	361436.937500
1901.000000	359954.437500
1900.015625	362333.312500
1899.030273	361087.156250
1898.044922	361046.750000
1897.059570	361455.406250
1896.074219	360308.937500
1895.088867	361085.281250
1894.102539	361955.187500
1893.116211	362033.750000
1892.129883	361752.312500
1891.143555	361060.406250
1890.157227	360921.093750
1889.169922	361417.750000
1888.183594	362111.812500
1887.196289	362152.187500
1886.208984	362065.906250
1885.221680	361769.531250
1884.233398	361911.156250
1883.246094	361959.062500
1882.257812	361923.468750
1881.269531	362512.718750
1880.281250	362464.343750
1879.292969	362598.062500
1878.304688	362974.468750
1877.315430	362420.375000
1876.326172	362490.781250
1875.336914	363114.625000
1874.347656	363038.312500
1873.358398	363161.593750
1872.368164	363686.437500
1871.378906	363056.937500
1870.388672	364114.406250
1869.398438	361962.656250
1868.408203	363189.000000
1867.416992	364255.937500
1866.426758	363639.437500
1865.435547	363386.406250
1864.444336	364026.406250
1863.453125	363682.593750
1862.461914	365166.968750
1861.469727	365324.750000
1860.478516	364524.625000
1859.486328	363964.156250
1858.494141	364321.093750
1857.501953	365610.000000
1856.509766	365482.843750
1855.516602	364854.562500
1854.523438	365482.968750
1853.530273	365476.687500
1852.537109	365498.125000
1851.543945	366161.250000
1850.550781	366864.406250
1849.556641	365811.281250
1848.562500	366987.125000
1847.569336	366542.906250
1846.574219	367087.031250
1845.580078	365725.343750
1844.585938	366646.437500
1843.590820	366421.187500
1842.595703	366831.718750
1841.600586	366928.062500
1840.605469	367114.781250
1839.610352	367243.656250
1838.614258	368278.906250
1837.618164	367985.750000
1836.622070	368036.562500
1835.625977	367959.343750
1834.629883	367192.125000
1833.633789	368512.375000
1832.636719	368766.187500
1831.639648	369032.406250
1830.642578	368927.406250
1829.645508	368762.281250
1828.648438	369216.312500
1827.650391	368389.562500
1826.652344	370008.593750
1825.655273	369171.937500
1824.657227	370209.125000
1823.658203	368866.812500
1822.660156	368924.656250
1821.661133	369956.281250
1820.663086	370326.750000
1819.664062	369943.781250
1818.664062	370006.343750
1817.665039	370291.500000
1816.666016	369358.437500
1815.666016	369848.625000
1814.666016	370028.593750
1813.666016	369386.031250
1812.666016	370833.218750
1811.665039	370373.125000
1810.665039	369645.843750
1809.664062	370122.906250
1808.663086	370767.125000
1807.662109	370639.437500
1806.661133	370763.968750
1805.659180	370092.093750
1804.658203	370281.562500
1803.656250	371044.875000
1802.654297	370078.843750
1801.652344	371445.625000
1800.649414	370946.250000
1799.647461	372100.406250
1798.644531	371982.531250
1797.641602	371877.156250
1796.638672	370144.218750
1795.634766	371975.468750
1794.631836	371085.250000
1793.627930	371687.531250
1792.625000	371646.968750
1791.621094	372077.093750
1790.616211	372063.843750
1789.612305	370920.406250
1788.607422	371631.625000
1787.603516	371944.406250
1786.598633	371525.562500
1785.593750	371517.343750
1784.587891	371330.000000
1783.583008	371948.437500
1782.577148	371144.468750
1781.571289	370584.375000
1780.565430	371582.843750
1779.559570	371972.093750
1778.553711	372276.750000
1777.546875	371279.593750
1776.541016	372118.218750
1775.534180	371372.218750
1774.527344	372056.562500
1773.519531	371161.843750
1772.512695	371054.218750
1771.504883	372420.625000
1770.497070	371469.218750
1769.489258	371574.906250
1768.481445	371090.218750
1767.473633	371503.375000
1766.464844	370713.906250
1765.457031	372373.812500
1764.448242	371257.281250
1763.439453	372381.250000
1762.429688	371275.000000
1761.420898	369879.312500
1760.411133	372010.843750
1759.401367	371667.906250
1758.391602	371513.187500
1757.381836	370578.812500
1756.372070	371040.562500
1755.361328	371838.687500
1754.350586	370931.906250
1753.339844	371648.125000
1752.329102	370749.062500
1751.318359	371507.062500
1750.307617	370405.593750
1749.295898	370458.875000
1748.284180	370470.093750
1747.272461	370921.125000
1746.260742	371540.000000
1745.249023	372220.375000
1744.236328	371077.875000
1743.223633	370397.531250
1742.210938	371551.718750
1741.198242	371414.531250
1740.185547	371625.343750
1739.171875	370284.031250
1738.159180	371272.062500
1737.145508	371221.281250
1736.131836	371175.468750
1735.118164	371726.343750
1734.103516	371438.781250
1733.089844	372272.875000
1732.075195	371176.968750
1731.060547	370096.187500
1730.045898	372050.968750
1729.030273	370834.937500
1728.015625	371429.406250
1727.000000	370893.468750
1725.984375	372115.468750
1724.968750	372441.093750
1723.953125	371390.875000
1722.937500	372833.531250
1721.920898	372157.531250
1720.904297	372327.875000
1719.887695	371784.968750
1718.871094	371726.625000
1717.854492	371520.781250
1716.836914	372145.781250
1715.820312	371871.093750
1714.802734	372837.312500
1713.785156	372690.312500
1712.766602	371951.406250
1711.749023	372536.406250
1710.730469	372993.500000
1709.711914	372291.718750
1708.693359	373818.812500
1707.674805	372211.562500
1706.656250	372000.968750
1705.636719	373399.687500
1704.618164	373390.031250
1703.598633	373105.718750
1702.579102	373373.156250
1701.558594	373079.125000
1700.539062	373775.343750
1699.518555	373934.656250
1698.498047	373172.656250
1697.477539	373194.812500
1696.457031	373574.500000
1695.436523	374752.406250
1694.415039	373912.375000
1693.393555	374147.281250
1692.372070	373510.781250
1691.350586	373258.687500
1690.329102	374364.531250
1689.306641	374848.656250
1688.285156	372605.531250
1687.262695	374539.843750
1686.240234	374365.968750
1685.216797	374045.437500
1684.194336	374255.375000
1683.170898	374206.187500
1682.148438	374127.687500
1681.125000	374718.531250
1680.100586	373198.968750
1679.077148	374055.906250
1678.052734	374143.437500
1677.029297	373554.781250
1676.004883	374391.625000
1674.980469	373856.781250
1673.955078	374322.375000
1672.930664	374768.312500
1671.905273	374638.468750
1670.879883	374516.000000
1669.854492	373642.656250
1668.829102	373381.406250
1667.803711	373766.093750
1666.777344	374133.593750
1665.750977	373073.281250
1664.724609	374098.375000
1663.698242	374107.562500
1662.671875	373999.843750
1661.644531	373339.500000
1660.618164	373691.968750
1659.590820	372632.750000
1658.563477	373863.593750
1657.535156	372736.593750
1656.507812	371879.968750
1655.479492	372998.375000
1654.451172	373681.125000
1653.422852	372924.406250
1652.394531	372731.843750
1651.366211	371888.062500
1650.336914	372266.750000
1649.307617	372659.843750
1648.278320	372180.812500
1647.249023	371884.062500
1646.219727	372121.562500
1645.189453	371907.437500
1644.160156	371292.906250
1643.129883	371074.125000
1642.099609	371355.218750
1641.068359	372177.187500
1640.038086	371276.781250
1639.006836	371729.812500
1637.975586	371477.125000
1636.944336	371437.843750
1635.913086	369874.031250
1634.881836	370448.125000
1633.849609	369989.812500
1632.817383	371929.937500
1631.786133	370359.781250
1630.752930	369686.187500
1629.720703	370831.125000
1628.688477	370000.312500
1627.655273	369549.750000
1626.622070	369762.406250
1625.588867	369764.468750
1624.555664	369604.437500
1623.521484	369391.250000
1622.487305	369652.062500
1621.454102	369545.281250
1620.419922	369368.437500
1619.384766	368497.968750
1618.350586	368591.968750
1617.315430	368101.250000
1616.281250	367968.187500
1615.246094	368438.968750
1614.209961	368170.625000
1613.174805	367984.468750
1612.139648	367991.468750
1611.103516	367979.156250
1610.067383	368155.031250
1609.031250	368601.062500
1607.995117	368217.125000
1606.958008	368730.468750
1605.920898	366323.500000
1604.884766	368307.625000
1603.847656	368022.781250
1602.809570	368870.718750
1601.772461	367359.343750
1600.734375	368327.531250
1599.696289	367960.937500
1598.659180	367560.718750
1597.620117	368299.562500
1596.582031	367819.968750
1595.542969	367838.781250
1594.504883	368538.625000
1593.465820	366969.187500
1592.426758	368118.781250
1591.386719	366855.437500
1590.347656	384506.906250
1589.307617	368852.812500
1588.267578	366746.156250
1587.227539	368264.843750
1586.187500	367312.531250
1585.146484	367446.562500
1584.106445	367842.406250
1583.065430	367781.718750
1582.024414	367267.156250
1580.983398	367242.593750
1579.941406	367918.968750
1578.900391	368314.312500
1577.858398	368349.500000
1576.816406	368972.500000
1575.774414	367810.500000
1574.732422	367569.906250
1573.689453	368238.218750
1572.646484	368863.156250
1571.603516	369166.625000
1570.560547	368952.250000
1569.517578	368421.625000
1568.473633	370632.093750
1567.430664	368029.250000
1566.386719	368251.093750
1565.342773	368884.687500
1564.298828	369259.500000
1563.253906	368820.250000
1562.208984	368685.125000
1561.165039	368818.000000
1560.120117	370424.625000
1559.074219	368411.468750
1558.029297	370153.875000
1556.983398	370202.656250
1555.938477	370072.093750
1554.892578	371244.312500
1553.846680	370432.468750
1552.799805	369580.281250
1551.753906	369901.406250
1550.707031	369790.062500
1549.660156	368525.218750
1548.613281	369954.250000
1547.566406	369608.937500
1546.518555	370820.031250
1545.470703	368987.875000
1544.423828	370632.875000
1543.375000	370542.906250
1542.327148	370591.281250
1541.279297	371033.125000
1540.230469	369197.687500
1539.181641	371124.812500
1538.132812	370393.593750
1537.083984	370775.531250
1536.035156	369985.000000
1534.985352	370133.375000
1533.935547	369950.593750
1532.885742	370144.156250
1531.835938	370073.312500
1530.786133	370090.562500
1529.735352	370769.468750
1528.684570	370443.906250
1527.633789	369939.968750
1526.583008	370566.156250
1525.532227	369753.156250
1524.480469	370586.031250
1523.429688	369618.750000
1522.377930	369531.343750
1521.326172	369693.500000
1520.273438	370283.343750
1519.221680	369789.531250
1518.168945	369763.843750
1517.116211	369949.562500
1516.063477	369634.125000
1515.010742	368442.718750
1513.958008	369072.406250
1512.904297	369246.156250
1511.850586	368726.968750
1510.796875	368115.375000
1509.743164	369940.156250
1508.688477	368458.156250
1507.634766	368883.156250
1506.580078	368381.000000
1505.525391	367867.125000
1504.470703	368718.562500
1503.415039	367536.593750
1502.360352	368098.687500
1501.304688	367947.593750
1500.249023	368412.312500
1499.193359	367245.375000
1498.137695	367269.687500
1497.081055	367604.031250
1496.024414	366804.656250
1494.967773	366963.812500
1493.911133	366465.250000
1492.854492	367322.187500
1491.796875	366591.937500
1490.740234	366881.031250
1489.682617	366006.906250
1488.625000	365995.781250
1487.567383	367227.687500
1486.508789	365718.343750
1485.450195	364951.281250
1484.392578	365717.375000
1483.333008	366242.281250
1482.274414	365961.875000
1481.215820	365244.843750
1480.156250	364884.437500
1479.096680	364602.031250
1478.037109	365485.250000
1476.977539	364964.531250
1475.917969	364939.281250
1474.857422	363739.687500
1473.796875	364848.687500
1472.736328	364198.781250
1471.675781	364305.593750
1470.615234	364638.593750
1469.553711	364010.218750
1468.492188	363478.625000
1467.430664	362118.187500
1466.369141	361641.250000
1465.307617	363445.781250
1464.245117	363472.468750
1463.182617	363626.250000
1462.120117	363154.031250
1461.057617	363519.500000
1459.995117	362400.562500
1458.931641	363182.281250
1457.869141	363058.406250
1456.805664	363759.750000
1455.742188	362803.718750
1454.677734	361993.718750
1453.614258	362661.937500
1452.549805	361845.156250
1451.485352	362238.312500
1450.420898	362272.000000
1449.356445	362169.500000
1448.291016	362156.218750
1447.226562	361640.625000
1446.161133	361608.625000
1445.095703	360886.843750
1444.030273	361439.093750
1442.963867	362408.625000
1441.897461	362167.750000
1440.832031	360820.281250
1439.764648	361165.781250
1438.698242	361026.000000
1437.631836	361062.000000
1436.564453	361112.031250
1435.497070	360815.343750
1434.429688	360797.437500
1433.362305	361280.687500
1432.294922	359869.625000
1431.226562	361209.562500
1430.158203	360554.937500
1429.089844	361313.906250
1428.021484	361555.562500
1426.953125	360531.593750
1425.883789	361828.031250
1424.814453	360292.281250
1423.745117	359982.125000
1422.675781	360450.437500
1421.606445	359932.343750
1420.536133	359743.875000
1419.465820	360590.406250
1418.395508	359077.468750
1417.325195	359561.781250
1416.254883	359368.812500
1415.183594	360165.718750
1414.112305	358616.500000
1413.041016	359095.843750
1411.969727	361101.000000
1410.898438	359463.750000
1409.826172	359665.093750
1408.754883	358749.281250
1407.682617	358544.937500
1406.609375	358508.468750
1405.537109	359026.750000
1404.464844	358375.000000
1403.391602	359491.875000
1402.318359	358844.875000
1401.245117	359062.218750
1400.170898	358059.218750
1399.097656	358055.375000
1398.023438	359131.656250
1396.949219	358680.750000
1395.875000	358001.937500
1394.800781	358032.968750
1393.725586	357980.218750
1392.651367	357499.531250
1391.576172	357423.625000
1390.500977	357547.687500
1389.424805	356541.937500
1388.349609	357500.437500
1387.273438	358007.750000
1386.197266	356972.250000
1385.121094	356731.500000
1384.044922	356878.656250
1382.967773	356110.906250
1381.891602	355710.187500
1380.814453	356375.031250
1379.737305	356742.593750
1378.659180	355968.375000
1377.582031	356236.062500
1376.503906	356188.187500
1375.425781	357135.187500
1374.347656	354944.718750
1373.269531	356079.343750
1372.190430	356156.656250
1371.112305	355853.843750
1370.033203	355815.281250
1368.954102	355348.125000
1367.874023	355856.250000
1366.794922	355692.593750
1365.714844	355167.812500
1364.634766	355694.156250
1363.554688	355926.343750
1362.474609	355478.125000
1361.394531	355127.187500
1360.313477	355752.593750
1359.232422	355575.187500
1358.151367	354301.750000
1357.070312	355067.906250
1355.988281	355625.750000
1354.907227	354378.375000
1353.825195	354917.625000
1352.743164	355022.343750
1351.660156	355334.875000
1350.578125	354594.156250
1349.495117	353551.218750
1348.412109	353875.343750
1347.329102	354455.562500
1346.246094	353821.656250
1345.162109	353769.406250
1344.079102	353980.156250
1342.995117	354949.687500
1341.911133	354532.875000
1340.827148	353989.343750
1339.742188	353591.250000
1338.657227	353578.187500
1337.573242	353834.781250
1336.488281	353459.906250
1335.402344	351855.000000
1334.317383	353284.062500
1333.231445	354003.312500
1332.145508	353188.843750
1331.059570	353537.218750
1329.973633	352366.375000
1328.886719	352074.968750
1327.800781	353506.937500
1326.713867	351800.718750
1325.626953	352351.312500
1324.539062	352246.343750
1323.452148	352557.531250
1322.364258	352073.250000
1321.276367	352825.593750
1320.188477	352414.937500
1319.100586	351714.937500
1318.012695	351334.468750
1316.923828	351261.843750
1315.834961	352052.625000
1314.746094	350698.843750
1313.657227	351640.875000
1312.567383	351884.906250
1311.477539	351959.031250
1310.388672	350913.593750
1309.297852	350923.625000
1308.208008	351451.906250
1307.118164	351193.531250
1306.027344	350738.093750
1304.936523	351130.875000
1303.845703	350285.968750
1302.754883	350312.062500
1301.663086	349080.468750
1300.571289	349867.125000
1299.480469	349934.437500
1298.387695	349630.812500
1297.295898	349382.187500
1296.204102	349275.562500
1295.111328	350164.406250
1294.018555	348966.312500
1292.925781	349555.156250
1291.832031	349796.156250
1290.739258	348390.656250
1289.645508	349121.000000
1288.551758	347841.812500
1287.458008	347545.812500
1286.364258	348376.406250
1285.269531	348359.093750
1284.174805	347928.343750
1283.081055	347189.437500
1281.985352	347142.625000
1280.890625	345947.500000
1279.794922	347665.312500
1278.700195	347189.343750
1277.604492	345839.656250
1276.508789	346769.468750
1275.412109	345819.468750
1274.316406	345636.031250
1273.219727	346458.156250
1272.123047	346639.406250
1271.026367	345525.937500
1269.928711	344934.718750
1268.832031	346660.843750
1267.734375	345206.250000
1266.636719	345808.812500
1265.539062	345600.500000
1264.440430	345132.656250
1263.342773	345291.000000
1262.244141	344843.843750
1261.145508	345084.062500
1260.046875	343724.750000
1258.947266	345302.593750
1257.848633	343377.406250
1256.749023	342905.937500
1255.649414	343350.812500
1254.549805	343575.031250
1253.449219	343924.156250
1252.348633	343318.781250
1251.249023	343501.968750
1250.148438	347255.687500
1249.046875	347671.968750
1247.946289	347136.687500
1246.844727	345861.531250
1245.743164	345528.750000
1244.641602	346421.531250
1243.540039	344055.781250
1242.438477	342920.406250
1241.335938	341229.750000
1240.233398	343365.312500
1239.130859	342924.437500
1238.028320	342123.281250
1236.924805	342643.750000
1235.821289	342670.000000
1234.717773	342360.906250
1233.614258	343345.375000
1232.510742	343190.250000
1231.406250	341830.531250
1230.302734	343174.468750
1229.198242	341072.750000
1228.093750	342185.468750
1226.988281	341519.250000
1225.883789	341323.812500
1224.778320	342650.750000
1223.672852	341896.562500
1222.567383	342053.875000
1221.460938	342579.593750
1220.355469	342625.937500
1219.249023	341277.875000
1218.142578	342449.625000
1217.036133	342992.937500
1215.928711	342284.687500
1214.822266	342371.625000
1213.714844	342101.750000
1212.607422	342676.250000
1211.500000	341578.062500
1210.391602	342840.718750
1209.284180	342153.500000
1208.175781	342217.687500
1207.067383	341404.531250
1205.958984	341969.406250
1204.849609	342270.312500
1203.740234	342174.343750
1202.631836	342416.437500
1201.521484	342498.468750
1200.412109	341537.343750
1199.302734	341155.437500
1198.192383	341861.437500
1197.082031	341963.718750
1195.971680	342126.718750
1194.861328	341382.562500
1193.750000	342513.281250
1192.638672	343533.343750
1191.527344	342175.093750
1190.416016	342992.375000
1189.304688	342275.625000
1188.192383	341961.593750
1187.081055	341294.718750
1185.968750	341803.593750
1184.855469	341817.843750
1183.743164	342047.812500
1182.629883	340354.718750
1181.517578	341317.031250
1180.404297	341818.593750
1179.290039	340764.093750
1178.176758	341550.656250
1177.062500	341089.031250
1175.948242	339642.468750
1174.833984	341229.718750
1173.719727	340061.781250
1172.605469	340473.156250
1171.490234	341021.125000
1170.375000	340293.250000
1169.259766	340973.281250
1168.144531	339060.093750
1167.028320	340298.000000
1165.912109	339956.031250
1164.796875	340960.343750
1163.679688	340759.468750
1162.563477	340643.718750
1161.447266	339762.375000
1160.330078	340609.250000
1159.212891	339739.406250
1158.095703	339055.531250
1156.977539	340315.906250
1155.860352	339061.812500
1154.742188	338557.312500
1153.624023	338759.500000
1152.505859	337390.125000
1151.386719	338689.781250
1150.268555	338011.375000
1149.149414	338666.968750
1148.030273	337486.187500
1146.910156	337728.437500
1145.791016	337298.500000
1144.670898	337118.718750
1143.550781	337657.750000
1142.430664	336574.093750
1141.310547	337034.906250
1140.190430	336701.343750
1139.069336	336925.468750
1137.948242	336986.750000
1136.827148	336468.250000
1135.705078	336284.312500
1134.583984	335688.093750
1133.461914	335493.187500
1132.339844	335503.343750
1131.217773	335629.312500
1130.095703	333824.156250
1128.972656	335449.031250
1127.849609	334239.031250
1126.726562	334362.843750
1125.603516	334686.906250
1124.479492	334703.750000
1123.356445	334266.718750
1122.232422	335527.062500
1121.108398	334667.468750
1119.984375	335506.968750
1118.859375	333456.000000
1117.734375	334026.437500
1116.609375	334261.093750
1115.484375	332187.000000
1114.359375	332961.687500
1113.233398	333833.843750
1112.108398	334034.968750
1110.982422	333805.281250
1109.856445	333227.093750
1108.729492	333596.875000
1107.603516	332828.062500
1106.476562	333093.468750
1105.349609	334181.781250
1104.222656	334475.656250
1103.094727	333021.968750
1101.966797	332544.343750
1100.839844	333798.156250
1099.711914	332941.531250
1098.583008	332413.187500
1097.455078	332846.531250
1096.326172	332812.343750
1095.197266	332636.375000
1094.068359	332591.125000
1092.939453	333942.843750
1091.809570	332589.156250
1090.679688	332130.062500
1089.549805	332261.875000
1088.419922	333271.906250
1087.290039	332549.687500
1086.159180	332398.250000
1085.028320	333913.968750
1083.897461	333214.093750
1082.766602	333794.156250
1081.635742	334055.781250
1080.503906	331763.187500
1079.372070	332380.718750
1078.240234	333541.343750
1077.108398	331965.531250
1075.975586	332101.312500
1074.843750	332627.781250
1073.710938	332423.500000
1072.577148	332691.500000
1071.444336	333327.812500
1070.311523	332982.312500
1069.177734	331774.625000
1068.043945	332898.031250
1066.910156	332030.250000
1065.775391	333001.062500
1064.640625	332030.000000
1063.506836	332753.656250
1062.372070	331908.500000
1061.236328	331323.562500
1060.101562	332593.062500
1058.965820	332725.968750
1057.830078	332105.906250
1056.694336	331985.718750
1055.558594	332554.312500
1054.421875	333558.343750
1053.285156	332687.750000
1052.148438	332257.375000
1051.011719	333025.562500
1049.875000	332659.000000
1048.737305	332472.781250
1047.599609	332543.781250
1046.461914	331636.906250
1045.324219	331442.156250
1044.186523	332282.062500
1043.047852	331786.375000
1041.909180	331196.406250
1040.770508	332248.781250
1039.631836	331514.093750
1038.492188	331538.937500
1037.352539	331116.187500
1036.212891	331211.281250
1035.073242	331187.875000
1033.933594	330914.468750
1032.792969	331298.937500
1031.652344	331711.718750
1030.511719	331054.781250
1029.371094	330415.593750
1028.230469	331717.781250
1027.088867	330966.968750
1025.947266	330492.375000
1024.805664	330646.375000
1023.664062	330697.406250
1022.521484	331532.062500
1021.378906	331390.281250
1020.236328	330215.781250
1019.093750	330570.875000
1017.951172	329633.156250
1016.807617	330303.125000
1015.664062	329763.718750
1014.520508	330448.687500
1013.376953	329697.406250
1012.233398	330174.500000
1011.088867	330391.406250
1009.944336	329721.312500
1008.799805	329601.843750
1007.655273	329628.718750
1006.509766	329607.531250
1005.364258	329802.468750
1004.218750	331068.875000
1003.073242	329818.875000
1001.927734	329935.062500
1000.781250	329745.812500
999.634766	329608.968750
998.488281	330536.218750
997.341797	329147.843750
996.195312	328620.968750
995.047852	329828.968750
993.900391	329069.000000
992.752930	328786.375000
991.605469	329910.875000
990.457031	329068.500000
989.308594	329097.312500
988.160156	329298.093750
987.011719	329746.906250
985.863281	330101.968750
984.713867	328988.312500
983.564453	329658.750000
982.415039	329641.687500
981.265625	329578.937500
980.115234	329266.187500
978.965820	328642.687500
977.815430	329251.687500
976.664062	329588.812500
975.513672	329773.718750
974.362305	329111.437500
973.211914	330039.062500
972.060547	329170.687500
970.908203	330230.343750
969.756836	329503.281250
968.604492	330015.625000
967.452148	329377.781250
966.299805	329705.531250
965.147461	329002.906250
963.994141	330219.656250
962.841797	330354.031250
961.688477	330533.906250
960.535156	328960.312500
959.380859	329159.843750
958.226562	328668.156250
957.073242	330262.593750
955.918945	328386.968750
954.763672	330333.781250
953.609375	329876.812500
952.454102	328725.187500
951.298828	330080.031250
950.143555	330229.187500
948.988281	329337.687500
947.832031	329530.125000
946.675781	329056.406250
945.519531	329516.906250
944.363281	329358.968750
943.207031	328954.687500
942.049805	328611.031250
940.892578	329674.000000
939.735352	328809.750000
938.578125	329248.093750
937.419922	327982.531250
936.261719	328051.656250
935.103516	328632.343750
933.945312	328466.062500
932.787109	328556.593750
931.627930	327287.937500
930.468750	328222.000000
929.309570	327766.875000
928.150391	327613.781250
926.990234	328238.937500
925.831055	326264.500000
924.670898	327960.656250
923.509766	327042.687500
922.349609	327189.218750
921.188477	327023.375000
920.028320	327725.406250
918.867188	327021.250000
917.705078	326836.093750
916.543945	327120.187500
915.381836	325852.718750
914.219727	326567.156250
913.057617	325893.875000
911.895508	326638.125000
910.732422	326313.406250
909.569336	326317.718750
908.406250	325791.093750
907.243164	325455.937500
906.080078	325028.468750
904.916016	325258.531250
903.751953	325247.937500
902.587891	325215.843750
901.423828	324823.031250
900.258789	324548.437500
899.093750	324782.562500
897.928711	325025.187500
896.763672	324986.656250
895.598633	324480.531250
894.432617	324967.500000
893.266602	324592.312500
892.100586	324538.843750
890.934570	323889.468750
889.767578	324121.125000
888.600586	323084.218750
887.433594	323208.781250
886.266602	323566.781250
885.099609	323382.812500
883.931641	322774.968750
882.763672	323184.156250
881.595703	322715.687500
880.427734	324181.812500
879.258789	324295.250000
878.089844	323409.625000
876.920898	324027.843750
875.751953	323178.937500
874.583008	324555.906250
873.413086	324250.125000
872.243164	323623.875000
871.073242	323480.718750
869.903320	323873.843750
868.732422	324335.156250
867.562500	325048.281250
866.391602	324415.968750
865.220703	323835.093750
864.048828	323457.218750
862.876953	324050.406250
861.706055	324662.562500
860.534180	323555.125000
859.361328	324179.937500
858.189453	323859.843750
857.016602	324322.281250
855.843750	326359.812500
854.670898	325376.625000
853.497070	324219.062500
852.324219	324355.062500
851.150391	325157.718750
849.976562	325121.000000
848.802734	325116.218750
847.627930	324723.937500
846.453125	324651.093750
845.278320	325289.000000
844.103516	324971.375000
842.928711	324279.406250
841.752930	325221.156250
840.577148	327104.562500
839.401367	325793.875000
838.225586	325801.593750
837.048828	326043.062500
835.873047	326482.031250
834.696289	326795.500000
833.518555	326603.312500
832.341797	326239.125000
831.164062	326732.906250
829.987305	325354.031250
828.808594	325902.937500
827.630859	325882.875000
826.453125	326647.906250
825.274414	326695.562500
824.095703	326713.531250
822.916992	326256.437500
821.737305	326577.625000
820.558594	326470.468750
819.378906	326706.687500
818.199219	327188.625000
817.018555	326094.062500
815.838867	327370.250000
814.658203	327161.312500
813.477539	327744.375000
812.296875	327294.093750
811.115234	326968.812500
809.934570	327803.375000
808.752930	326269.937500
807.571289	326926.593750
806.388672	326823.656250
805.207031	326686.937500
804.024414	326338.781250
802.841797	326126.062500
801.659180	327471.062500
800.475586	327125.062500
799.291992	326500.250000
798.109375	327185.343750
796.924805	327226.031250
795.741211	326926.687500
794.556641	326806.906250
793.373047	326039.156250
792.188477	327185.812500
791.002930	325956.125000
789.818359	326292.250000
788.632812	326060.843750
787.447266	326209.093750
786.261719	326209.656250
785.076172	325466.093750
783.889648	326141.250000
782.703125	326213.437500
781.516602	325975.906250
780.330078	326246.093750
779.142578	326198.125000
777.956055	325419.500000
776.768555	326531.718750
775.580078	325033.406250
774.392578	325981.093750
773.204102	325962.625000
772.015625	326785.656250
770.827148	325294.656250
769.638672	325698.968750
768.449219	325794.031250
767.260742	325758.718750
766.071289	324966.750000
764.880859	324982.031250
763.691406	325079.187500
762.500977	324399.093750
761.310547	325462.406250
760.120117	324261.687500
758.929688	324787.156250
757.738281	325178.062500
756.546875	325153.281250
755.355469	325592.218750
754.164062	325183.437500
752.972656	325490.000000
751.780273	324011.843750
750.587891	325163.468750
749.395508	324505.531250
748.202148	324856.000000
747.009766	324267.468750
745.816406	324703.687500
744.623047	324798.312500
743.428711	324444.656250
742.235352	324704.656250
741.041016	325314.187500
739.846680	324558.718750
738.652344	323495.843750
737.457031	324285.187500
736.262695	324404.718750
735.067383	324191.656250
733.872070	325135.125000
732.675781	324012.406250
731.480469	325120.687500
730.284180	324119.593750
729.087891	324111.500000
727.891602	323370.031250
726.694336	323685.812500
725.497070	323897.031250
724.299805	325047.843750
723.102539	324995.656250
721.905273	325838.937500
720.707031	324459.281250
719.508789	324528.187500
718.310547	325189.562500
717.112305	324434.406250
715.913086	324215.437500
714.713867	324665.875000
713.514648	323988.312500
712.315430	325086.781250
711.116211	324688.593750
709.916016	324998.937500
708.715820	324998.781250
707.515625	324809.062500
706.314453	325358.625000
705.114258	325043.968750
703.913086	325050.000000
702.711914	325811.437500
701.510742	326250.062500
700.308594	324487.468750
699.106445	325458.625000
697.904297	325539.343750
696.702148	325530.593750
695.500000	325384.656250
694.296875	325091.156250
693.093750	325009.750000
691.890625	325823.812500
690.686523	325573.968750
689.483398	325118.625000
688.279297	325431.718750
687.075195	325233.968750
685.871094	326111.500000
684.666016	325726.875000
683.460938	325491.781250
682.255859	325501.562500
681.050781	325509.250000
679.845703	325933.750000
678.639648	325731.906250
677.433594	326311.656250
676.227539	325674.531250
675.020508	325520.468750
673.814453	325283.593750
672.607422	325336.750000
671.400391	325391.968750
670.193359	326107.718750
668.985352	325388.437500
667.777344	325429.093750
666.569336	325788.406250
665.361328	324289.468750
664.153320	324499.906250
662.944336	324943.937500
661.735352	324817.062500
660.526367	325083.031250
659.317383	323994.875000
658.107422	324746.593750
656.897461	324375.906250
655.687500	324722.281250
654.477539	324638.875000
653.266602	324695.906250
652.055664	324090.062500
650.844727	323185.093750
649.633789	323277.406250
648.422852	323346.968750
647.210938	324258.343750
645.999023	324290.531250
644.787109	322726.250000
643.575195	322443.156250
642.362305	323094.187500
641.149414	322732.781250
639.936523	322911.468750
638.723633	323450.718750
637.509766	323299.531250
636.295898	322130.843750
635.082031	321349.718750
633.868164	322866.875000
632.654297	322386.468750
631.439453	321782.718750
630.224609	321055.718750
629.009766	321571.750000
627.793945	321980.593750
626.579102	322243.218750
625.363281	321064.187500
624.147461	321888.187500
622.930664	320689.093750
621.714844	321249.718750
620.498047	320901.875000
619.281250	321873.125000
618.064453	321525.281250
616.846680	320760.625000
615.628906	320981.843750
614.411133	321258.406250
613.193359	320730.218750
611.975586	321213.968750
610.756836	319818.062500
609.538086	320896.656250
608.319336	320830.375000
607.099609	320212.468750
605.880859	320699.875000
604.661133	321160.437500
603.441406	320272.250000
602.221680	321408.906250
601.000977	321203.187500
599.780273	320977.062500
598.559570	321127.812500
597.338867	321002.062500
596.117188	322376.968750
594.896484	321399.531250
593.674805	320514.562500
592.453125	321258.531250
591.230469	320566.187500
590.007812	321524.593750
588.786133	320413.218750
587.562500	321267.000000
586.339844	321358.000000
585.116211	322566.843750
583.893555	322136.468750
582.669922	321226.156250
581.445312	322099.343750
580.221680	322000.093750
578.997070	322621.625000
577.772461	322111.968750
576.547852	321998.437500
575.322266	321995.125000
574.096680	322687.531250
572.871094	321576.406250
571.645508	321487.468750
570.419922	322540.468750
569.193359	322008.968750
567.966797	322168.625000
566.740234	322578.906250
565.513672	321564.718750
564.286133	321239.468750
563.058594	321617.062500
561.831055	321646.250000
560.603516	322237.375000
559.375000	322107.625000
558.146484	321418.187500
556.917969	320421.718750
555.689453	321268.906250
554.460938	321631.656250
553.231445	321040.375000
552.001953	320697.406250
550.772461	320976.625000
549.541992	320052.437500
548.312500	320988.062500
547.082031	320198.281250
545.851562	319203.593750
544.620117	319269.500000
543.388672	318949.531250
542.158203	319041.843750
540.926758	319440.625000
539.694336	318014.625000
538.462891	317962.937500
537.230469	318734.937500
535.998047	318198.312500
534.764648	318894.906250
533.532227	317186.406250
532.298828	317909.281250
531.065430	317002.218750
529.832031	316521.031250
528.597656	315563.906250
527.364258	317270.968750
526.129883	316303.875000
524.894531	315561.937500
523.660156	315164.406250
522.424805	315511.968750
521.189453	315011.375000
519.954102	314808.406250
518.718750	313947.968750
517.482422	314275.187500
516.246094	314847.000000
515.009766	314067.875000
513.773438	314229.093750
512.536133	314396.281250
511.299805	312801.250000
510.062500	313849.531250
508.824219	313289.437500
507.586914	313787.843750
506.348633	313849.875000
505.110352	314117.812500
503.872070	313719.500000
502.632812	313688.625000
501.393555	312987.875000
500.154297	313231.500000
498.915039	313287.437500
497.675781	313793.031250
496.435547	313106.812500
495.195312	312834.125000
493.955078	312351.875000
492.714844	313086.937500
491.473633	314061.468750
490.232422	314135.187500
488.991211	313802.062500
487.750000	314069.093750
486.507812	314525.218750
485.265625	314429.687500
484.023438	313488.906250
482.781250	314433.812500
481.538086	314012.375000
480.294922	315161.937500
479.051758	314052.750000
477.808594	314057.843750
476.565430	314177.500000
475.321289	314602.562500
474.077148	313974.531250
472.833008	314385.375000
471.587891	314241.687500
470.342773	314152.218750
469.097656	314131.093750
467.852539	313569.906250
466.607422	313372.218750
465.361328	313772.593750
464.115234	314166.781250
462.869141	314621.000000
461.623047	313592.843750
460.375977	313054.375000
459.128906	313215.781250
457.881836	313250.843750
456.633789	311993.218750
455.386719	312353.062500
454.138672	313039.281250
452.890625	312863.968750
451.642578	312113.968750
450.393555	312229.187500
449.144531	311459.531250
447.895508	311134.468750
446.646484	311179.718750
445.396484	310734.750000
444.146484	310630.031250
442.896484	310285.312500
441.646484	309886.718750
440.396484	309230.375000
439.145508	309099.968750
437.894531	309804.906250
436.643555	309334.718750
435.391602	307863.875000
434.139648	308534.656250
432.887695	308013.031250
431.635742	307551.468750
430.383789	307461.343750
429.130859	307850.250000
427.877930	307095.593750
426.625000	306867.937500
425.371094	306596.437500
424.118164	305964.062500
422.864258	305559.218750
421.610352	305473.500000
420.355469	305662.843750
419.101562	306910.250000
417.846680	304885.656250
416.591797	305339.875000
415.335938	305612.687500
414.081055	304891.750000
412.825195	304883.781250
411.569336	304593.187500
410.312500	304650.937500
409.056641	304511.656250
407.799805	304937.406250
406.542969	304961.187500
405.285156	304058.281250
404.028320	304251.187500
402.770508	304207.468750
401.512695	303682.781250
400.254883	305290.437500
398.996094	304328.625000
397.737305	304447.750000
396.478516	303984.937500
395.219727	303067.531250
393.960938	304413.656250
392.701172	302924.875000
391.441406	304117.687500
390.181641	303750.531250
388.920898	302960.937500
387.660156	304061.781250
386.399414	303189.125000
385.138672	303369.562500
383.877930	302669.781250
382.616211	303191.093750
381.354492	302780.875000
380.092773	302576.875000
378.830078	303066.156250
377.568359	302194.750000
376.305664	301678.062500
375.041992	302640.312500
373.779297	301716.000000
372.515625	301777.500000
371.251953	301496.656250
369.988281	301192.187500
368.724609	300703.875000
367.459961	299849.937500
366.195312	300827.000000
364.930664	299682.750000
363.666016	299477.656250
362.400391	299140.250000
361.134766	299002.437500
359.869141	297928.500000
358.602539	297962.781250
357.336914	297225.062500
356.070312	298266.125000
354.803711	298418.687500
353.536133	296905.781250
352.269531	296585.031250
351.001953	296171.656250
349.734375	295030.750000
348.465820	295197.500000
347.198242	295535.687500
345.929688	294756.187500
344.661133	294828.281250
343.392578	293877.781250
342.123047	294066.187500
340.853516	294555.843750
339.583984	293540.906250
338.314453	293906.406250
337.043945	293348.625000
335.773438	292509.593750
334.502930	293490.906250
333.232422	293240.343750
331.960938	292118.562500
330.690430	293445.437500
329.417969	293118.312500
328.146484	292274.312500
326.875000	292167.625000
325.602539	291583.468750
324.330078	291842.343750
323.056641	291077.750000
321.784180	290814.187500
320.510742	291675.812500
319.237305	291319.968750
317.963867	291148.718750
316.689453	290793.062500
315.415039	290775.000000
314.140625	290268.500000
312.866211	290048.500000
311.590820	291105.093750
310.316406	290320.375000
309.041016	289334.062500
307.764648	289355.406250
306.489258	289605.968750
305.212891	288152.093750
303.936523	288565.343750
302.660156	288210.781250
301.382812	288236.156250
300.105469	287574.437500
298.828125	287155.625000
297.550781	287052.000000
296.273438	286345.843750
294.995117	286909.406250
293.716797	285558.125000
292.437500	285411.812500
291.159180	284831.562500
289.879883	284519.281250
288.600586	284242.281250
287.321289	284698.062500
286.041016	283407.281250
284.761719	283093.500000
283.481445	282725.156250
282.200195	281982.093750
280.919922	282254.312500
279.638672	280998.343750
278.357422	281112.562500
277.076172	280438.593750
275.793945	280147.156250
274.511719	279627.656250
273.229492	279927.218750
271.947266	279836.781250
270.665039	278411.343750
269.381836	278845.375000
268.098633	278180.437500
266.814453	277969.593750
265.531250	277285.562500
264.247070	276812.093750
262.962891	277384.156250
261.678711	277693.250000
260.393555	276737.312500
259.108398	276351.781250
257.823242	275950.843750
256.538086	274869.312500
255.252930	275771.593750
253.966797	275279.562500
252.680664	275747.937500
251.393555	274154.187500
250.107422	274721.656250
248.820312	274954.750000
247.533203	274820.656250
246.246094	273540.906250
244.958008	273642.031250
243.669922	273463.562500
242.381836	273046.468750
241.093750	272726.531250
239.804688	272598.750000
238.516602	271508.937500
237.227539	271984.531250
235.937500	272157.468750
234.648438	271368.812500
233.358398	271006.843750
232.068359	270705.062500
230.778320	269184.718750
229.487305	270489.218750
228.196289	268921.062500
226.905273	268890.937500
225.614258	268436.843750
224.322266	268641.000000
223.030273	268566.406250
221.738281	267377.343750
220.446289	267633.812500
219.153320	265567.250000
217.860352	265723.375000
216.567383	266476.812500
215.274414	265356.906250
213.980469	264382.312500
212.686523	264581.000000
211.392578	264115.000000
210.098633	263116.093750
208.803711	262389.843750
207.508789	261213.968750
206.213867	260704.531250
204.918945	260656.546875
203.623047	259527.968750
202.327148	260091.796875
201.031250	259187.484375
199.735352	258729.000000
198.438477	257913.953125
197.141602	257752.750000
195.844727	257269.718750
194.547852	255732.718750
193.250000	256001.656250
191.952148	255611.656250
190.654297	256325.375000
189.355469	254391.093750
188.057617	254224.906250
186.758789	254312.875000
185.458984	253621.343750
184.160156	253659.343750
182.860352	253818.484375
181.560547	253492.875000
180.260742	252453.921875
178.960938	252670.859375
177.660156	252851.187500
176.359375	252220.359375
175.058594	252354.562500
173.756836	251802.812500
172.455078	251892.828125
171.153320	251965.515625
169.851562	251456.375000
168.548828	251803.609375
167.247070	251206.390625
165.944336	250246.687500
164.640625	250379.031250
163.337891	248947.937500
162.034180	249327.875000
160.730469	248812.156250
159.426758	248331.140625
158.122070	246694.484375
156.817383	246196.781250
155.512695	245867.875000
154.208008	246311.093750
152.902344	244653.046875
151.596680	243572.031250
150.291016	243456.343750
148.985352	242385.500000
147.678711	243194.453125
146.372070	242527.796875
145.065430	241897.734375
143.758789	242207.046875
142.451172	242131.843750
141.143555	241068.156250
139.835938	240025.890625
138.528320	240411.734375
137.219727	240042.609375
135.911133	238603.718750
134.602539	236876.937500
133.292969	234793.671875
131.984375	232289.218750
130.674805	228856.000000
129.364258	225901.265625
128.054688	223067.875000
126.744141	219174.734375
125.433594	215189.609375
124.123047	210614.781250
122.811523	207565.265625
121.500000	203128.984375
120.188477	197897.656250
