#Wave		#Intensity
2199.120117	39879.972656
2198.186523	39853.175781
2197.252930	40577.648438
2196.320312	39890.316406
2195.386719	39870.042969
2194.453125	39943.492188
2193.518555	40338.160156
2192.584961	40360.640625
2191.650391	40035.214844
2190.716797	39736.652344
2189.782227	40024.070312
2188.847656	40199.046875
2187.912109	40098.507812
2186.977539	40318.859375
2186.041992	40065.949219
2185.107422	39978.843750
2184.171875	39915.820312
2183.236328	40013.136719
2182.299805	39910.054688
2181.364258	40039.386719
2180.427734	40157.992188
2179.492188	39865.351562
2178.555664	40563.265625
2177.619141	40083.804688
2176.681641	40114.246094
2175.745117	40278.089844
2174.807617	40172.421875
2173.871094	40221.500000
2172.933594	40195.882812
2171.996094	40332.925781
2171.057617	40030.031250
2170.120117	40601.539062
2169.181641	40208.089844
2168.244141	40387.664062
2167.305664	39906.464844
2166.367188	40376.371094
2165.427734	39929.960938
2164.489258	40024.246094
2163.550781	40185.054688
2162.611328	39965.160156
2161.671875	40251.007812
2160.732422	40377.097656
2159.792969	40245.074219
2158.852539	40035.957031
2157.913086	40396.054688
2156.972656	39979.570312
2156.032227	40323.597656
2155.091797	40311.308594
2154.151367	39996.042969
2153.209961	40244.226562
2152.269531	40181.472656
2151.328125	40270.152344
2150.386719	40249.910156
2149.445312	40128.765625
2148.503906	40092.621094
2147.561523	40181.250000
2146.620117	39816.003906
2145.677734	39806.460938
2144.735352	40043.664062
2143.792969	39946.546875
2142.850586	40478.031250
2141.908203	40256.238281
2140.964844	40487.890625
2140.021484	39775.761719
2139.078125	40314.855469
2138.134766	40188.632812
2137.191406	40213.472656
2136.248047	39766.781250
2135.303711	40075.074219
2134.359375	40211.132812
2133.415039	40413.335938
2132.470703	39861.027344
2131.526367	39737.671875
2130.582031	40167.421875
2129.636719	40438.277344
2128.691406	40076.800781
2127.746094	40141.273438
2126.800781	40351.167969
2125.855469	40547.765625
2124.910156	40033.191406
2123.963867	40224.488281
2123.017578	40481.781250
2122.071289	39996.542969
2121.125000	40486.250000
2120.178711	40381.515625
2119.232422	40424.695312
2118.285156	40401.851562
2117.337891	40249.660156
2116.390625	40277.000000
2115.443359	40349.191406
2114.496094	40165.421875
2113.548828	40427.539062
2112.600586	40924.308594
2111.652344	40561.210938
2110.704102	40237.785156
2109.755859	40562.972656
2108.807617	39991.894531
2107.859375	40522.558594
2106.910156	40489.187500
2105.960938	40711.359375
2105.011719	40609.484375
2104.062500	40491.839844
2103.113281	40321.574219
2102.163086	40741.054688
2101.213867	40583.964844
2100.263672	40408.503906
2099.313477	40683.031250
2098.363281	40318.203125
2097.413086	40221.781250
2096.461914	40701.320312
2095.511719	40904.609375
2094.560547	40429.574219
2093.609375	40716.945312
2092.658203	40725.652344
2091.706055	40211.476562
2090.754883	40661.613281
2089.802734	40644.050781
2088.850586	40363.882812
2087.898438	40585.316406
2086.946289	40670.156250
2085.994141	40768.093750
2085.041016	40669.167969
2084.088867	40439.082031
2083.135742	40644.562500
2082.182617	40671.605469
2081.229492	40677.660156
2080.275391	40369.066406
2079.322266	40684.515625
2078.368164	40860.933594
2077.414062	40507.910156
2076.459961	41087.812500
2075.505859	40988.988281
2074.551758	41123.316406
2073.596680	40961.664062
2072.642578	40661.289062
2071.687500	40879.375000
2070.732422	40901.066406
2069.777344	41003.882812
2068.821289	41101.425781
2067.866211	40992.257812
2066.910156	41194.394531
2065.954102	41328.460938
2064.998047	41119.945312
2064.041992	40916.730469
2063.084961	40789.386719
2062.128906	41111.589844
2061.171875	40699.441406
2060.214844	40770.746094
2059.257812	41257.339844
2058.300781	40654.726562
2057.343750	41055.003906
2056.385742	41079.195312
2055.427734	40641.371094
2054.469727	41104.066406
2053.511719	40812.507812
2052.553711	41230.664062
2051.594727	40952.218750
2050.636719	41302.394531
2049.677734	41469.917969
2048.718750	40881.335938
2047.759766	40837.738281
2046.800781	40971.371094
2045.840820	41203.972656
2044.881836	41136.886719
2043.921875	41129.734375
2042.961914	41125.187500
2042.001953	41071.167969
2041.041016	40717.769531
2040.081055	41176.621094
2039.120117	41073.167969
2038.159180	40860.460938
2037.198242	41345.058594
2036.237305	41134.976562
2035.276367	41426.906250
2034.314453	41318.289062
2033.353516	41222.707031
2032.391602	41103.761719
2031.429688	41034.238281
2030.467773	40889.378906
2029.504883	41365.496094
2028.542969	41064.773438
2027.580078	41073.210938
2026.617188	40757.062500
2025.654297	41313.343750
2024.691406	41046.578125
2023.727539	40925.242188
2022.764648	41364.433594
2021.800781	41214.542969
2020.836914	41316.312500
2019.873047	41127.578125
2018.909180	41159.312500
2017.944336	40942.148438
2016.980469	41207.191406
2016.015625	41000.457031
2015.050781	40749.742188
2014.085938	41532.835938
2013.121094	41367.593750
2012.155273	41249.023438
2011.190430	41296.218750
2010.224609	41024.953125
2009.258789	41292.191406
2008.292969	41466.164062
2007.326172	41156.187500
2006.360352	41480.175781
2005.393555	40942.671875
2004.426758	41046.750000
2003.459961	41391.269531
2002.493164	40947.128906
2001.526367	41128.695312
2000.558594	41449.757812
1999.591797	41111.777344
1998.624023	41052.945312
1997.656250	41205.941406
1996.687500	41064.460938
1995.719727	41496.281250
1994.750977	41163.746094
1993.783203	41517.957031
1992.814453	41133.910156
1991.845703	41475.097656
1990.875977	41238.250000
1989.907227	41292.968750
1988.937500	41394.089844
1987.968750	41637.000000
1986.999023	41194.027344
1986.029297	41287.375000
1985.058594	41079.148438
1984.088867	41236.902344
1983.118164	41461.582031
1982.147461	41317.828125
1981.176758	41550.140625
1980.206055	41808.121094
1979.235352	41834.296875
1978.263672	41376.527344
1977.292969	41531.449219
1976.321289	41292.613281
1975.349609	41221.089844
1974.376953	41206.179688
1973.405273	41407.312500
1972.433594	41397.515625
1971.460938	41755.371094
1970.488281	41159.433594
1969.515625	41064.867188
1968.542969	40787.886719
1967.569336	41042.824219
1966.596680	41336.203125
1965.623047	41644.890625
1964.649414	41442.464844
1963.675781	41856.281250
1962.701172	41304.781250
1961.727539	41510.589844
1960.752930	41349.378906
1959.779297	41180.523438
1958.804688	41422.156250
1957.829102	41266.167969
1956.854492	41399.996094
1955.879883	41408.148438
1954.904297	41529.085938
1953.928711	41383.433594
1952.953125	40935.460938
1951.977539	41878.820312
1951.000977	41633.277344
1950.025391	41193.175781
1949.048828	41132.203125
1948.072266	41608.902344
1947.095703	41614.429688
1946.119141	41287.242188
1945.141602	41367.027344
1944.165039	41352.125000
1943.187500	41559.769531
1942.209961	41030.765625
1941.232422	41281.863281
1940.254883	41821.773438
1939.276367	41653.421875
1938.297852	41229.550781
1937.320312	41631.191406
1936.341797	41102.722656
1935.362305	41384.187500
1934.383789	41361.625000
1933.405273	41104.148438
1932.425781	41359.929688
1931.446289	41681.988281
1930.466797	41429.687500
1929.487305	41572.996094
1928.506836	41241.710938
1927.527344	41489.582031
1926.546875	41280.843750
1925.566406	41332.273438
1924.585938	41113.433594
1923.605469	41259.183594
1922.624023	41432.917969
1921.642578	41221.816406
1920.662109	41599.312500
1919.680664	41528.351562
1918.698242	41195.089844
1917.716797	41345.757812
1916.735352	41267.234375
1915.752930	41328.742188
1914.770508	41112.812500
1913.788086	41085.261719
1912.805664	41564.003906
1911.822266	41472.789062
1910.839844	41483.332031
1909.856445	41305.699219
1908.873047	41519.656250
1907.889648	41418.335938
1906.906250	41134.062500
1905.921875	41297.109375
1904.938477	40995.167969
1903.954102	41249.625000
1902.969727	40998.589844
1901.985352	41484.027344
1901.000000	41101.015625
1900.015625	41461.882812
1899.030273	41005.406250
1898.044922	41170.773438
1897.059570	40770.320312
1896.074219	41666.207031
1895.088867	41253.125000
1894.102539	41621.179688
1893.116211	40980.070312
1892.129883	41500.136719
1891.143555	41148.187500
1890.157227	41064.960938
1889.169922	41318.710938
1888.183594	41167.089844
1887.196289	41225.722656
1886.208984	41223.558594
1885.221680	41256.839844
1884.233398	41472.363281
1883.246094	41194.292969
1882.257812	40865.714844
1881.269531	41028.054688
1880.281250	40765.382812
1879.292969	40980.792969
1878.304688	40826.949219
1877.315430	41231.878906
1876.326172	40716.578125
1875.336914	41422.128906
1874.347656	41574.054688
1873.358398	41372.234375
1872.368164	41309.406250
1871.378906	41264.277344
1870.388672	40916.156250
1869.398438	40754.976562
1868.408203	40874.035156
1867.416992	41114.191406
1866.426758	41172.582031
1865.435547	40776.839844
1864.444336	41203.539062
1863.453125	41271.968750
1862.461914	41032.746094
1861.469727	41078.488281
1860.478516	41187.226562
1859.486328	41421.937500
1858.494141	41286.160156
1857.501953	40903.535156
1856.509766	41163.355469
1855.516602	40889.179688
1854.523438	41249.625000
1853.530273	41257.488281
1852.537109	41011.121094
1851.543945	41119.687500
1850.550781	41401.832031
1849.556641	40961.847656
1848.562500	41357.109375
1847.569336	40985.187500
1846.574219	41249.550781
1845.580078	40935.593750
1844.585938	41270.250000
1843.590820	40994.097656
1842.595703	41062.277344
1841.600586	41065.113281
1840.605469	41258.843750
1839.610352	41055.707031
1838.614258	41334.738281
1837.618164	41272.246094
1836.622070	41322.722656
1835.625977	41375.695312
1834.629883	41044.742188
1833.633789	41624.566406
1832.636719	41065.433594
1831.639648	40955.394531
1830.642578	40970.761719
1829.645508	41309.519531
1828.648438	41492.753906
1827.650391	41147.136719
1826.652344	41312.792969
1825.655273	41077.558594
1824.657227	41541.226562
1823.658203	41328.570312
1822.660156	41221.148438
1821.661133	41278.988281
1820.663086	40963.863281
1819.664062	40916.617188
1818.664062	41527.441406
1817.665039	41199.925781
1816.666016	40937.554688
1815.666016	41092.902344
1814.666016	41328.207031
1813.666016	41265.941406
1812.666016	41068.718750
1811.665039	40944.039062
1810.665039	41319.121094
1809.664062	41107.003906
1808.663086	40864.984375
1807.662109	41252.359375
1806.661133	41484.796875
1805.659180	41140.484375
1804.658203	41273.015625
1803.656250	40966.289062
1802.654297	41428.152344
1801.652344	41084.085938
1800.649414	41086.828125
1799.647461	41443.683594
1798.644531	41169.601562
1797.641602	41364.277344
1796.638672	40915.832031
1795.634766	41145.367188
1794.631836	41227.820312
1793.627930	40747.246094
1792.625000	41133.597656
1791.621094	40999.351562
1790.616211	41246.089844
1789.612305	41253.761719
1788.607422	41047.378906
1787.603516	40925.679688
1786.598633	41132.441406
1785.593750	40908.773438
1784.587891	41314.437500
1783.583008	40951.554688
1782.577148	40817.535156
1781.571289	41175.765625
1780.565430	40706.222656
1779.559570	40863.058594
1778.553711	41290.652344
1777.546875	40786.550781
1776.541016	41151.914062
1775.534180	41072.644531
1774.527344	40782.367188
1773.519531	40986.179688
1772.512695	41368.613281
1771.504883	41088.359375
1770.497070	40929.769531
1769.489258	40870.460938
1768.481445	40719.402344
1767.473633	41252.804688
1766.464844	40657.937500
1765.457031	40559.050781
1764.448242	41129.367188
1763.439453	41312.917969
1762.429688	40931.523438
1761.420898	40929.257812
1760.411133	40805.632812
1759.401367	40909.863281
1758.391602	41103.187500
1757.381836	40477.093750
1756.372070	40898.117188
1755.361328	40806.765625
1754.350586	40683.285156
1753.339844	40767.628906
1752.329102	40760.433594
1751.318359	40409.531250
1750.307617	40837.523438
1749.295898	40682.003906
1748.284180	40867.593750
1747.272461	40670.113281
1746.260742	40655.523438
1745.249023	40707.628906
1744.236328	40796.757812
1743.223633	40794.496094
1742.210938	40268.839844
1741.198242	40232.109375
1740.185547	40595.195312
1739.171875	40600.367188
1738.159180	41135.949219
1737.145508	40664.957031
1736.131836	40773.687500
1735.118164	40399.085938
1734.103516	40515.214844
1733.089844	40586.937500
1732.075195	40668.488281
1731.060547	40525.781250
1730.045898	40575.281250
1729.030273	40908.027344
1728.015625	41038.710938
1727.000000	40578.402344
1725.984375	40775.562500
1724.968750	40687.128906
1723.953125	40817.753906
1722.937500	40626.000000
1721.920898	40702.460938
1720.904297	40616.558594
1719.887695	40626.593750
1718.871094	40518.601562
1717.854492	40858.066406
1716.836914	41042.562500
1715.820312	40863.281250
1714.802734	41330.269531
1713.785156	40708.800781
1712.766602	41087.226562
1711.749023	40672.304688
1710.730469	40932.742188
1709.711914	40756.113281
1708.693359	41291.339844
1707.674805	40515.925781
1706.656250	40457.234375
1705.636719	41009.398438
1704.618164	41083.082031
1703.598633	40761.921875
1702.579102	40602.695312
1701.558594	40999.996094
1700.539062	40735.386719
1699.518555	40483.121094
1698.498047	40946.382812
1697.477539	41056.718750
1696.457031	41015.164062
1695.436523	40860.976562
1694.415039	41052.062500
1693.393555	40658.019531
1692.372070	40746.273438
1691.350586	40653.414062
1690.329102	40837.054688
1689.306641	40893.425781
1688.285156	40966.894531
1687.262695	41221.292969
1686.240234	40876.597656
1685.216797	40813.132812
1684.194336	40561.500000
1683.170898	40908.640625
1682.148438	40613.101562
1681.125000	40456.898438
1680.100586	40713.503906
1679.077148	40913.851562
1678.052734	41223.992188
1677.029297	40857.859375
1676.004883	40435.718750
1674.980469	40889.746094
1673.955078	40814.187500
1672.930664	41004.539062
1671.905273	40880.207031
1670.879883	41133.875000
1669.854492	41114.394531
1668.829102	41219.234375
1667.803711	41199.742188
1666.777344	40875.667969
1665.750977	40597.996094
1664.724609	40741.820312
1663.698242	40902.640625
1662.671875	41192.457031
1661.644531	41221.671875
1660.618164	41345.804688
1659.590820	41034.261719
1658.563477	40880.992188
1657.535156	40742.367188
1656.507812	40963.785156
1655.479492	41168.101562
1654.451172	41226.449219
1653.422852	41136.480469
1652.394531	40861.812500
1651.366211	40990.656250
1650.336914	41124.312500
1649.307617	41513.000000
1648.278320	40895.972656
1647.249023	41539.554688
1646.219727	41541.898438
1645.189453	41517.531250
1644.160156	41381.519531
1643.129883	41216.437500
1642.099609	41344.996094
1641.068359	41233.343750
1640.038086	41422.488281
1639.006836	41536.390625
1637.975586	41342.320312
1636.944336	41761.636719
1635.913086	41351.878906
1634.881836	41305.761719
1633.849609	41237.855469
1632.817383	41673.847656
1631.786133	41843.253906
1630.752930	41978.699219
1629.720703	42506.324219
1628.688477	41835.488281
1627.655273	42304.863281
1626.622070	42031.160156
1625.588867	42074.503906
1624.555664	42676.625000
1623.521484	42804.484375
1622.487305	42567.152344
1621.454102	42105.054688
1620.419922	42834.855469
1619.384766	42815.160156
1618.350586	42568.320312
1617.315430	43126.105469
1616.281250	42555.609375
1615.246094	42504.570312
1614.209961	42938.914062
1613.174805	42767.109375
1612.139648	43075.722656
1611.103516	42935.328125
1610.067383	42821.519531
1609.031250	42992.437500
1607.995117	42948.613281
1606.958008	43083.269531
1605.920898	43229.929688
1604.884766	43359.664062
1603.847656	43159.117188
1602.809570	42838.136719
1601.772461	43071.480469
1600.734375	43174.640625
1599.696289	42962.218750
1598.659180	43156.871094
1597.620117	43043.250000
1596.582031	42915.218750
1595.542969	42950.910156
1594.504883	43234.464844
1593.465820	43041.496094
1592.426758	43721.878906
1591.386719	43346.085938
1590.347656	43208.507812
1589.307617	43325.851562
1588.267578	43169.089844
1587.227539	42928.257812
1586.187500	42865.343750
1585.146484	43025.906250
1584.106445	43049.476562
1583.065430	43428.515625
1582.024414	42661.921875
1580.983398	43091.312500
1579.941406	42685.140625
1578.900391	43179.175781
1577.858398	42744.332031
1576.816406	43036.636719
1575.774414	42597.167969
1574.732422	42824.632812
1573.689453	42685.113281
1572.646484	42830.957031
1571.603516	42928.804688
1570.560547	42549.656250
1569.517578	42649.914062
1568.473633	42167.925781
1567.430664	42483.800781
1566.386719	42109.789062
1565.342773	42028.050781
1564.298828	42003.800781
1563.253906	42522.945312
1562.208984	42120.464844
1561.165039	42290.035156
1560.120117	41698.730469
1559.074219	41696.078125
1558.029297	42066.527344
1556.983398	42087.722656
1555.938477	41738.335938
1554.892578	41905.390625
1553.846680	41553.769531
1552.799805	41503.347656
1551.753906	41591.511719
1550.707031	41216.238281
1549.660156	41199.335938
1548.613281	41051.109375
1547.566406	41504.550781
1546.518555	40976.792969
1545.470703	41122.218750
1544.423828	40935.925781
1543.375000	41105.164062
1542.327148	40883.160156
1541.279297	41126.269531
1540.230469	40766.042969
1539.181641	40687.250000
1538.132812	40565.578125
1537.083984	40865.761719
1536.035156	40806.046875
1534.985352	40922.644531
1533.935547	40531.863281
1532.885742	40662.750000
1531.835938	40538.824219
1530.786133	40810.113281
1529.735352	40652.878906
1528.684570	40833.617188
1527.633789	40276.710938
1526.583008	40200.531250
1525.532227	40512.066406
1524.480469	40331.234375
1523.429688	40870.878906
1522.377930	40309.699219
1521.326172	40426.089844
1520.273438	40216.882812
1519.221680	40128.917969
1518.168945	40340.292969
1517.116211	39974.453125
1516.063477	39639.617188
1515.010742	40335.296875
1513.958008	40254.503906
1512.904297	40263.921875
1511.850586	40097.742188
1510.796875	39936.363281
1509.743164	40142.714844
1508.688477	40021.699219
1507.634766	39865.160156
1506.580078	40216.027344
1505.525391	39959.949219
1504.470703	39936.214844
1503.415039	39765.578125
1502.360352	39910.089844
1501.304688	39495.539062
1500.249023	39673.203125
1499.193359	39606.914062
1498.137695	40068.582031
1497.081055	39883.890625
1496.024414	40200.976562
1494.967773	39569.125000
1493.911133	39893.250000
1492.854492	39618.835938
1491.796875	39926.277344
1490.740234	39524.269531
1489.682617	39503.015625
1488.625000	39436.855469
1487.567383	39533.781250
1486.508789	39410.933594
1485.450195	39602.316406
1484.392578	38990.578125
1483.333008	39798.316406
1482.274414	39437.035156
1481.215820	39628.269531
1480.156250	39262.421875
1479.096680	39493.734375
1478.037109	39297.914062
1476.977539	39408.828125
1475.917969	39522.058594
1474.857422	39465.460938
1473.796875	39715.386719
1472.736328	39406.542969
1471.675781	39114.308594
1470.615234	39519.679688
1469.553711	39493.753906
1468.492188	39394.812500
1467.430664	39557.328125
1466.369141	39357.152344
1465.307617	39147.632812
1464.245117	39065.292969
1463.182617	39317.179688
1462.120117	39496.027344
1461.057617	39448.953125
1459.995117	39192.550781
1458.931641	39303.117188
1457.869141	39526.511719
1456.805664	39437.144531
1455.742188	39324.300781
1454.677734	39599.265625
1453.614258	39425.343750
1452.549805	39225.636719
1451.485352	39491.070312
1450.420898	39394.750000
1449.356445	39368.902344
1448.291016	39636.511719
1447.226562	39105.988281
1446.161133	39136.527344
1445.095703	39594.078125
1444.030273	39598.707031
1442.963867	39347.675781
1441.897461	39042.796875
1440.832031	39417.972656
1439.764648	39235.085938
1438.698242	39558.523438
1437.631836	39394.421875
1436.564453	39394.382812
1435.497070	39354.519531
1434.429688	39476.273438
1433.362305	39253.753906
1432.294922	39412.941406
1431.226562	39429.277344
1430.158203	39621.140625
1429.089844	39583.609375
1428.021484	39384.656250
1426.953125	39202.152344
1425.883789	39213.824219
1424.814453	39237.183594
1423.745117	39555.109375
1422.675781	39115.574219
1421.606445	39466.121094
1420.536133	39512.777344
1419.465820	39286.078125
1418.395508	39358.441406
1417.325195	39124.839844
1416.254883	39012.742188
1415.183594	39479.648438
1414.112305	39724.644531
1413.041016	39031.398438
1411.969727	39502.710938
1410.898438	39413.964844
1409.826172	39614.472656
1408.754883	39474.429688
1407.682617	39602.570312
1406.609375	39446.257812
1405.537109	40010.214844
1404.464844	39345.859375
1403.391602	39387.718750
1402.318359	39131.382812
1401.245117	39483.031250
1400.170898	39743.734375
1399.097656	39659.757812
1398.023438	39834.199219
1396.949219	39701.359375
1395.875000	39245.105469
1394.800781	39675.453125
1393.725586	39535.726562
1392.651367	39905.390625
1391.576172	39888.914062
1390.500977	39802.691406
1389.424805	39644.441406
1388.349609	39632.664062
1387.273438	39850.929688
1386.197266	39797.296875
1385.121094	39878.406250
1384.044922	39515.902344
1382.967773	39880.316406
1381.891602	39926.535156
1380.814453	39703.484375
1379.737305	39912.171875
1378.659180	39814.496094
1377.582031	39631.019531
1376.503906	39596.050781
1375.425781	39690.964844
1374.347656	39836.851562
1373.269531	39934.003906
1372.190430	40045.023438
1371.112305	40088.800781
1370.033203	40336.449219
1368.954102	39687.500000
1367.874023	39770.683594
1366.794922	39659.316406
1365.714844	39529.460938
1364.634766	39883.468750
1363.554688	39538.371094
1362.474609	39644.640625
1361.394531	39579.660156
1360.313477	39607.230469
1359.232422	39986.335938
1358.151367	39530.527344
1357.070312	39733.796875
1355.988281	39534.777344
1354.907227	39421.343750
1353.825195	39441.968750
1352.743164	39621.996094
1351.660156	39261.441406
1350.578125	39090.394531
1349.495117	39628.289062
1348.412109	39284.085938
1347.329102	39316.242188
1346.246094	39249.152344
1345.162109	39009.031250
1344.079102	38845.125000
1342.995117	39071.085938
1341.911133	38821.894531
1340.827148	39181.507812
1339.742188	38946.214844
1338.657227	39298.757812
1337.573242	39065.832031
1336.488281	38922.847656
1335.402344	38745.355469
1334.317383	38770.613281
1333.231445	39127.468750
1332.145508	38572.433594
1331.059570	38791.074219
1329.973633	38712.726562
1328.886719	38687.332031
1327.800781	38597.523438
1326.713867	38549.156250
1325.626953	38638.796875
1324.539062	38627.226562
1323.452148	38109.855469
1322.364258	38413.300781
1321.276367	38291.453125
1320.188477	38346.582031
1319.100586	38544.132812
1318.012695	38461.375000
1316.923828	38043.339844
1315.834961	38307.421875
1314.746094	38266.070312
1313.657227	38162.753906
1312.567383	37646.382812
1311.477539	37956.230469
1310.388672	37988.378906
1309.297852	38288.875000
1308.208008	37999.882812
1307.118164	37871.500000
1306.027344	38089.320312
1304.936523	37798.226562
1303.845703	37910.562500
1302.754883	38022.855469
1301.663086	37974.753906
1300.571289	37745.722656
1299.480469	37764.093750
1298.387695	37999.964844
1297.295898	37578.757812
1296.204102	37631.476562
1295.111328	37519.410156
1294.018555	37613.296875
1292.925781	37617.937500
1291.832031	37185.738281
1290.739258	37540.312500
1289.645508	37355.195312
1288.551758	37314.156250
1287.458008	37268.558594
1286.364258	37318.945312
1285.269531	37323.617188
1284.174805	37038.199219
1283.081055	36853.363281
1281.985352	37040.785156
1280.890625	36897.109375
1279.794922	36675.875000
1278.700195	36904.300781
1277.604492	36968.359375
1276.508789	36770.042969
1275.412109	37151.140625
1274.316406	36638.152344
1273.219727	37023.695312
1272.123047	36412.886719
1271.026367	36786.933594
1269.928711	36657.218750
1268.832031	36308.820312
1267.734375	36263.523438
1266.636719	36277.460938
1265.539062	36509.996094
1264.440430	36573.968750
1263.342773	36512.714844
1262.244141	36253.472656
1261.145508	36164.992188
1260.046875	35967.332031
1258.947266	36079.105469
1257.848633	36168.093750
1256.749023	36316.167969
1255.649414	36177.726562
1254.549805	36453.035156
1253.449219	36282.800781
1252.348633	35767.250000
1251.249023	35874.363281
1250.148438	35545.324219
1249.046875	35924.953125
1247.946289	35920.714844
1246.844727	35564.597656
1245.743164	35776.050781
1244.641602	35588.019531
1243.540039	35325.179688
1242.438477	35209.890625
1241.335938	35489.292969
1240.233398	35637.062500
1239.130859	35823.324219
1238.028320	35406.523438
1236.924805	35259.582031
1235.821289	35500.191406
1234.717773	35244.535156
1233.614258	35432.957031
1232.510742	35299.699219
1231.406250	35426.898438
1230.302734	35198.601562
1229.198242	35167.320312
1228.093750	35283.152344
1226.988281	35236.023438
1225.883789	35213.796875
1224.778320	35058.117188
1223.672852	34986.171875
1222.567383	34975.304688
1221.460938	34837.835938
1220.355469	35349.128906
1219.249023	34899.773438
1218.142578	34934.109375
1217.036133	34638.609375
1215.928711	35201.507812
1214.822266	35030.265625
1213.714844	35055.519531
1212.607422	34491.566406
1211.500000	34724.550781
1210.391602	34880.722656
1209.284180	34899.210938
1208.175781	34473.292969
1207.067383	34807.597656
1205.958984	34972.660156
1204.849609	34819.761719
1203.740234	34610.562500
1202.631836	34843.175781
1201.521484	34555.175781
1200.412109	34904.867188
1199.302734	34709.312500
1198.192383	34741.292969
1197.082031	34705.710938
1195.971680	34631.867188
1194.861328	34416.242188
1193.750000	34846.582031
1192.638672	34437.488281
1191.527344	34471.722656
1190.416016	34712.878906
1189.304688	34531.160156
1188.192383	34336.011719
1187.081055	34356.750000
1185.968750	34438.160156
1184.855469	34384.710938
1183.743164	34236.910156
1182.629883	34165.539062
1181.517578	35194.730469
1180.404297	36371.757812
1179.290039	36820.914062
1178.176758	35923.042969
1177.062500	38427.953125
1175.948242	35764.125000
1174.833984	35851.847656
1173.719727	34963.773438
1172.605469	35553.980469
1171.490234	36857.027344
1170.375000	36590.261719
1169.259766	34259.164062
1168.144531	34174.492188
1167.028320	33953.167969
1165.912109	34076.925781
1164.796875	33703.386719
1163.679688	34124.992188
1162.563477	33422.433594
1161.447266	33864.078125
1160.330078	33786.292969
1159.212891	33871.894531
1158.095703	33460.753906
1156.977539	33830.480469
1155.860352	33904.839844
1154.742188	33865.125000
1153.624023	33742.695312
1152.505859	33513.015625
1151.386719	33696.886719
1150.268555	33789.070312
1149.149414	33441.085938
1148.030273	33225.023438
1146.910156	33489.207031
1145.791016	33456.312500
1144.670898	33474.777344
1143.550781	33270.015625
1142.430664	33161.296875
1141.310547	33063.769531
1140.190430	33461.542969
1139.069336	33426.449219
1137.948242	33244.179688
1136.827148	32950.488281
1135.705078	33310.089844
1134.583984	33484.558594
1133.461914	32990.417969
1132.339844	32991.085938
1131.217773	33060.812500
1130.095703	33099.332031
1128.972656	33373.882812
1127.849609	32971.488281
1126.726562	33050.066406
1125.603516	32634.521484
1124.479492	32953.457031
1123.356445	32900.722656
1122.232422	32948.109375
1121.108398	32890.949219
1119.984375	32920.527344
1118.859375	32643.291016
1117.734375	32724.025391
1116.609375	32773.613281
1115.484375	32714.308594
1114.359375	32743.884766
1113.233398	32804.546875
1112.108398	32565.378906
1110.982422	32697.097656
1109.856445	32464.695312
1108.729492	32678.505859
1107.603516	32872.265625
1106.476562	33019.359375
1105.349609	32582.972656
1104.222656	32390.718750
1103.094727	32245.101562
1101.966797	32700.375000
1100.839844	32568.052734
1099.711914	32495.615234
1098.583008	32624.853516
1097.455078	32641.048828
1096.326172	32805.652344
1095.197266	32438.664062
1094.068359	32364.095703
1092.939453	32477.734375
1091.809570	32372.195312
1090.679688	32563.246094
1089.549805	32645.802734
1088.419922	32679.660156
1087.290039	32397.205078
1086.159180	32393.498047
1085.028320	32210.693359
1083.897461	32321.970703
1082.766602	32384.582031
1081.635742	32356.564453
1080.503906	32679.857422
1079.372070	32870.488281
1078.240234	32420.544922
1077.108398	32569.193359
1075.975586	32260.767578
1074.843750	32614.677734
1073.710938	32176.138672
1072.577148	32554.207031
1071.444336	32585.759766
1070.311523	32162.902344
1069.177734	32053.365234
1068.043945	32525.988281
1066.910156	32039.437500
1065.775391	32095.292969
1064.640625	31961.601562
1063.506836	32398.636719
1062.372070	32227.484375
1061.236328	32327.312500
1060.101562	32021.900391
1058.965820	31932.373047
1057.830078	32071.820312
1056.694336	31962.505859
1055.558594	32284.541016
1054.421875	31871.601562
1053.285156	32120.939453
1052.148438	31954.505859
1051.011719	32135.568359
1049.875000	32015.361328
1048.737305	31895.195312
1047.599609	32008.033203
1046.461914	31745.082031
1045.324219	32077.599609
1044.186523	31838.890625
1043.047852	32184.443359
1041.909180	31974.345703
1040.770508	32036.542969
1039.631836	31929.708984
1038.492188	31792.187500
1037.352539	31727.121094
1036.212891	32232.447266
1035.073242	31812.003906
1033.933594	31749.158203
1032.792969	31600.826172
1031.652344	32070.726562
1030.511719	31889.511719
1029.371094	31890.240234
1028.230469	31564.523438
1027.088867	31876.361328
1025.947266	31550.761719
1024.805664	31952.263672
1023.664062	31994.572266
1022.521484	31761.058594
1021.378906	31709.277344
1020.236328	31723.156250
1019.093750	31548.884766
1017.951172	31540.912109
1016.807617	31493.576172
1015.664062	31776.419922
1014.520508	31322.439453
1013.376953	31231.453125
1012.233398	31876.943359
1011.088867	31401.341797
1009.944336	31808.451172
1008.799805	31780.773438
1007.655273	31746.554688
1006.509766	31587.898438
1005.364258	31590.833984
1004.218750	31537.021484
1003.073242	31659.976562
1001.927734	31555.990234
1000.781250	31628.724609
999.634766	31755.953125
998.488281	31235.527344
997.341797	31563.347656
996.195312	31422.412109
995.047852	31392.669922
993.900391	31888.050781
992.752930	31202.505859
991.605469	31290.433594
990.457031	31667.960938
989.308594	31133.064453
988.160156	31216.597656
987.011719	31297.923828
985.863281	31348.753906
984.713867	31386.507812
983.564453	31256.750000
982.415039	31296.679688
981.265625	31134.367188
980.115234	31356.925781
978.965820	31325.078125
977.815430	31134.591797
976.664062	31235.341797
975.513672	30892.865234
974.362305	31378.080078
973.211914	31400.542969
972.060547	31121.187500
970.908203	31161.056641
969.756836	31237.806641
968.604492	31746.375000
967.452148	31334.804688
966.299805	30921.214844
965.147461	31013.128906
963.994141	31319.689453
962.841797	31307.425781
961.688477	31481.585938
960.535156	31339.255859
959.380859	31036.623047
958.226562	31191.236328
957.073242	31324.128906
955.918945	31262.056641
954.763672	31225.990234
953.609375	31135.812500
952.454102	31305.410156
951.298828	30931.748047
950.143555	31274.414062
948.988281	31179.962891
947.832031	31364.560547
946.675781	30720.841797
945.519531	31119.505859
944.363281	31286.714844
943.207031	31332.826172
942.049805	31048.296875
940.892578	31174.373047
939.735352	30991.500000
938.578125	30936.119141
937.419922	31241.367188
936.261719	31093.123047
935.103516	31102.505859
933.945312	31211.160156
932.787109	31304.666016
931.627930	31333.417969
930.468750	31062.339844
929.309570	30884.091797
928.150391	30815.871094
926.990234	30717.496094
925.831055	30795.894531
924.670898	30824.699219
923.509766	30769.462891
922.349609	30923.201172
921.188477	30659.046875
920.028320	30890.267578
918.867188	30451.824219
917.705078	30797.082031
916.543945	30569.728516
915.381836	30607.126953
914.219727	30726.265625
913.057617	30711.994141
911.895508	30813.861328
910.732422	30438.343750
909.569336	30417.679688
908.406250	30783.917969
907.243164	30559.041016
906.080078	30654.388672
904.916016	30455.392578
903.751953	30838.531250
902.587891	30338.931641
901.423828	30479.332031
900.258789	30617.533203
899.093750	30227.705078
897.928711	30380.919922
896.763672	30115.712891
895.598633	30800.863281
894.432617	30572.132812
893.266602	30502.162109
892.100586	30723.781250
890.934570	30392.300781
889.767578	30292.394531
888.600586	30481.785156
887.433594	30356.189453
886.266602	30286.326172
885.099609	30372.818359
883.931641	30487.109375
882.763672	30524.292969
881.595703	30428.761719
880.427734	30356.804688
879.258789	30473.148438
878.089844	30399.066406
876.920898	30190.271484
875.751953	30678.648438
874.583008	30467.738281
873.413086	30344.542969
872.243164	30358.169922
871.073242	30395.294922
869.903320	30492.222656
868.732422	30187.550781
867.562500	30374.171875
866.391602	30483.857422
865.220703	30388.560547
864.048828	30190.847656
862.876953	30447.746094
861.706055	30220.222656
860.534180	30285.031250
859.361328	30264.500000
858.189453	30312.212891
857.016602	29963.353516
855.843750	30173.105469
854.670898	30344.416016
853.497070	30296.185547
852.324219	30550.494141
851.150391	30342.488281
849.976562	30321.966797
848.802734	30114.078125
847.627930	30344.808594
846.453125	30409.433594
845.278320	30333.580078
844.103516	30302.433594
842.928711	30413.826172
841.752930	30586.855469
840.577148	30472.742188
839.401367	30373.552734
838.225586	30363.677734
837.048828	30377.183594
835.873047	30377.933594
834.696289	30427.546875
833.518555	30349.691406
832.341797	30562.816406
831.164062	30338.451172
829.987305	30330.708984
828.808594	30312.357422
827.630859	30557.158203
826.453125	30716.996094
825.274414	30263.693359
824.095703	30586.839844
822.916992	30227.033203
821.737305	30263.835938
820.558594	30451.130859
819.378906	30403.099609
818.199219	30196.158203
817.018555	30247.763672
815.838867	30483.638672
814.658203	30336.091797
813.477539	30489.277344
812.296875	30506.912109
811.115234	30334.039062
809.934570	30474.439453
808.752930	30384.152344
807.571289	30344.669922
806.388672	30561.128906
805.207031	30343.990234
804.024414	30437.736328
802.841797	30489.166016
801.659180	30527.894531
800.475586	30579.287109
799.291992	30446.849609
798.109375	30341.919922
796.924805	30653.085938
795.741211	30807.876953
794.556641	30557.263672
793.373047	29846.589844
792.188477	30531.150391
791.002930	30510.714844
789.818359	30283.541016
788.632812	30242.064453
787.447266	30318.695312
786.261719	30610.357422
785.076172	30429.705078
783.889648	30521.007812
782.703125	30207.679688
781.516602	30187.322266
780.330078	30512.435547
779.142578	30378.296875
777.956055	30408.453125
776.768555	30316.486328
775.580078	30403.472656
774.392578	30107.400391
773.204102	29967.142578
772.015625	30127.771484
770.827148	30439.779297
769.638672	30282.710938
768.449219	30382.212891
767.260742	30519.515625
766.071289	30249.017578
764.880859	30262.308594
763.691406	30124.320312
762.500977	30196.443359
761.310547	29907.298828
760.120117	29910.138672
758.929688	30360.160156
757.738281	30434.279297
756.546875	30151.595703
755.355469	29980.226562
754.164062	29989.335938
752.972656	30304.675781
751.780273	30053.679688
750.587891	30163.408203
749.395508	29975.417969
748.202148	30185.724609
747.009766	30066.949219
745.816406	30193.349609
744.623047	30018.056641
743.428711	30081.585938
742.235352	29975.476562
741.041016	30242.068359
739.846680	30362.033203
738.652344	30004.787109
737.457031	30434.429688
736.262695	30106.589844
735.067383	29772.595703
733.872070	29990.818359
732.675781	30098.142578
731.480469	30077.906250
730.284180	29911.369141
729.087891	29958.041016
727.891602	29942.017578
726.694336	29997.019531
725.497070	30095.859375
724.299805	30228.072266
723.102539	30038.718750
721.905273	30087.396484
720.707031	29964.919922
719.508789	30213.902344
718.310547	29859.876953
717.112305	30058.724609
715.913086	29988.474609
714.713867	29766.042969
713.514648	30210.779297
712.315430	30292.689453
711.116211	30132.835938
709.916016	30127.220703
708.715820	30027.865234
707.515625	30209.710938
706.314453	30433.134766
705.114258	30181.792969
703.913086	30244.855469
702.711914	29877.095703
701.510742	30162.832031
700.308594	30044.867188
699.106445	30176.542969
697.904297	30060.695312
696.702148	30302.515625
695.500000	30184.607422
694.296875	30120.779297
693.093750	30254.390625
691.890625	30099.154297
690.686523	29983.441406
689.483398	29934.232422
688.279297	30034.548828
687.075195	29833.789062
685.871094	30482.076172
684.666016	29868.310547
683.460938	29960.259766
682.255859	30035.574219
681.050781	30032.042969
679.845703	30105.240234
678.639648	30107.912109
677.433594	30089.853516
676.227539	30152.632812
675.020508	29937.705078
673.814453	30091.646484
672.607422	29992.810547
671.400391	30173.607422
670.193359	29867.720703
668.985352	29947.023438
667.777344	30156.701172
666.569336	30223.501953
665.361328	30215.785156
664.153320	30026.021484
662.944336	30005.931641
661.735352	29795.593750
660.526367	30118.773438
659.317383	30137.951172
658.107422	29873.964844
656.897461	30145.285156
655.687500	29906.185547
654.477539	29840.691406
653.266602	30270.886719
652.055664	30033.958984
650.844727	29875.570312
649.633789	30243.589844
648.422852	29866.462891
647.210938	29817.546875
645.999023	29805.781250
644.787109	30235.412109
643.575195	29827.626953
642.362305	30079.775391
641.149414	29711.335938
639.936523	29901.578125
638.723633	29827.980469
637.509766	30026.367188
636.295898	30047.527344
635.082031	29823.597656
633.868164	29710.943359
632.654297	29633.326172
631.439453	29681.296875
630.224609	29634.582031
629.009766	30129.025391
627.793945	29944.410156
626.579102	29858.589844
625.363281	29460.222656
624.147461	29728.160156
622.930664	29669.146484
621.714844	29692.363281
620.498047	29927.224609
619.281250	29800.404297
618.064453	29913.960938
616.846680	29507.882812
615.628906	29607.074219
614.411133	29529.675781
613.193359	29476.933594
611.975586	29617.117188
610.756836	29357.144531
609.538086	29595.761719
608.319336	29553.296875
607.099609	29730.265625
605.880859	29718.542969
604.661133	29719.123047
603.441406	29637.720703
602.221680	29589.134766
601.000977	29538.515625
599.780273	29524.783203
598.559570	29478.289062
597.338867	29532.142578
596.117188	29444.716797
594.896484	29566.097656
593.674805	29650.595703
592.453125	29557.054688
591.230469	29674.250000
590.007812	29801.626953
588.786133	29800.125000
587.562500	29968.318359
586.339844	29842.091797
585.116211	29762.919922
583.893555	29755.291016
582.669922	29923.359375
581.445312	29768.636719
580.221680	29750.796875
578.997070	29722.751953
577.772461	29823.328125
576.547852	29683.021484
575.322266	29691.734375
574.096680	29839.181641
572.871094	29550.033203
571.645508	29713.763672
570.419922	29371.728516
569.193359	29855.513672
567.966797	29774.486328
566.740234	29895.250000
565.513672	29612.521484
564.286133	29590.662109
563.058594	29636.023438
561.831055	29768.935547
560.603516	29740.947266
559.375000	29474.791016
558.146484	29591.371094
556.917969	29661.103516
555.689453	29989.195312
554.460938	29824.894531
553.231445	29502.019531
552.001953	29834.019531
550.772461	29551.921875
549.541992	29792.314453
548.312500	29431.070312
547.082031	29222.349609
545.851562	29511.421875
544.620117	29581.023438
543.388672	29413.003906
542.158203	29411.533203
540.926758	29428.332031
539.694336	29376.117188
538.462891	29480.167969
537.230469	28995.822266
535.998047	29229.724609
534.764648	29404.720703
533.532227	29557.347656
532.298828	29233.501953
531.065430	29406.369141
529.832031	29224.529297
528.597656	28842.166016
527.364258	28909.666016
526.129883	28952.833984
524.894531	29451.609375
523.660156	29150.470703
522.424805	28964.826172
521.189453	28935.087891
519.954102	29160.316406
518.718750	28908.009766
517.482422	29072.474609
516.246094	29135.757812
515.009766	28879.548828
513.773438	28787.183594
512.536133	29139.511719
511.299805	29097.648438
510.062500	28803.246094
508.824219	29228.091797
507.586914	28879.242188
506.348633	29075.728516
505.110352	29017.759766
503.872070	28979.994141
502.632812	28994.714844
501.393555	28843.972656
500.154297	28979.753906
498.915039	28937.984375
497.675781	28940.597656
496.435547	28862.556641
495.195312	29351.003906
493.955078	28952.449219
492.714844	29239.181641
491.473633	29006.003906
490.232422	28905.861328
488.991211	29158.197266
487.750000	29025.841797
486.507812	29012.316406
485.265625	29085.343750
484.023438	28621.019531
482.781250	28836.947266
481.538086	28771.158203
480.294922	29381.189453
479.051758	29084.062500
477.808594	29016.246094
476.565430	29237.919922
475.321289	29115.835938
474.077148	29076.179688
472.833008	29245.478516
471.587891	28940.669922
470.342773	29047.669922
469.097656	28891.593750
467.852539	29098.935547
466.607422	29207.849609
465.361328	29196.314453
464.115234	29084.462891
462.869141	29109.060547
461.623047	29089.525391
460.375977	28949.679688
459.128906	28811.890625
457.881836	29042.978516
456.633789	28839.085938
455.386719	29142.210938
454.138672	28864.250000
452.890625	28854.791016
451.642578	28773.240234
450.393555	28599.617188
449.144531	28542.164062
447.895508	28804.966797
446.646484	29065.666016
445.396484	28724.054688
444.146484	28684.619141
442.896484	28589.199219
441.646484	28745.759766
440.396484	28666.355469
439.145508	28592.974609
437.894531	28687.490234
436.643555	28344.394531
435.391602	28516.828125
434.139648	28469.490234
432.887695	28398.208984
431.635742	28255.076172
430.383789	28638.982422
429.130859	28344.175781
427.877930	28466.519531
426.625000	28329.462891
425.371094	28266.255859
424.118164	28454.353516
422.864258	28215.681641
421.610352	28296.064453
420.355469	28224.935547
419.101562	28365.064453
417.846680	28409.505859
416.591797	28240.783203
415.335938	28141.830078
414.081055	28259.958984
412.825195	28186.917969
411.569336	28171.628906
410.312500	28192.166016
409.056641	28200.755859
407.799805	28137.722656
406.542969	28263.667969
405.285156	28216.552734
404.028320	27843.382812
402.770508	28390.736328
401.512695	28337.658203
400.254883	28119.667969
398.996094	28160.035156
397.737305	27894.484375
396.478516	27648.894531
395.219727	28253.238281
393.960938	28087.078125
392.701172	28111.527344
391.441406	28128.029297
390.181641	28170.316406
388.920898	28121.333984
387.660156	27903.783203
386.399414	28051.181641
385.138672	27968.541016
383.877930	28002.882812
382.616211	28001.535156
381.354492	27996.224609
380.092773	27860.162109
378.830078	28037.105469
377.568359	27954.552734
376.305664	28070.029297
375.041992	27896.437500
373.779297	27895.103516
372.515625	27773.058594
371.251953	27724.263672
369.988281	27950.439453
368.724609	27848.226562
367.459961	27781.642578
366.195312	27782.300781
364.930664	27871.904297
363.666016	27684.800781
362.400391	27792.167969
361.134766	27962.708984
359.869141	27479.427734
358.602539	27357.701172
357.336914	27680.248047
356.070312	27550.630859
354.803711	27677.628906
353.536133	27530.300781
352.269531	27491.533203
351.001953	27525.761719
349.734375	27224.718750
348.465820	27288.556641
347.198242	27251.830078
345.929688	27041.671875
344.661133	27186.298828
343.392578	27129.906250
342.123047	27372.951172
340.853516	27300.787109
339.583984	27055.367188
338.314453	27272.691406
337.043945	27192.708984
335.773438	26874.632812
334.502930	27160.726562
333.232422	26945.070312
331.960938	26955.681641
330.690430	27212.097656
329.417969	26925.769531
328.146484	26956.031250
326.875000	26870.326172
325.602539	27099.046875
324.330078	26938.689453
323.056641	26998.382812
321.784180	26712.416016
320.510742	27103.957031
319.237305	26808.259766
317.963867	26791.382812
316.689453	26884.402344
315.415039	26963.650391
314.140625	26734.894531
312.866211	26965.156250
311.590820	26773.740234
310.316406	26798.050781
309.041016	26879.195312
307.764648	26885.835938
306.489258	26661.265625
305.212891	26760.017578
303.936523	26372.988281
302.660156	26751.785156
301.382812	26826.962891
300.105469	26575.207031
298.828125	26294.187500
297.550781	26676.619141
296.273438	26213.740234
294.995117	26468.898438
293.716797	26399.318359
292.437500	26183.117188
291.159180	26217.226562
289.879883	26331.457031
288.600586	26279.539062
287.321289	26104.550781
286.041016	26070.273438
284.761719	26405.134766
283.481445	25986.134766
282.200195	26178.363281
280.919922	26009.410156
279.638672	25967.371094
278.357422	26058.027344
277.076172	25840.419922
275.793945	25815.988281
274.511719	26054.822266
273.229492	25802.242188
271.947266	25582.894531
270.665039	25960.007812
269.381836	25625.746094
268.098633	25749.439453
266.814453	25888.666016
265.531250	25548.761719
264.247070	25689.917969
262.962891	25665.548828
261.678711	25436.820312
260.393555	25488.398438
259.108398	25514.664062
257.823242	25593.437500
256.538086	25257.925781
255.252930	25521.443359
253.966797	25366.873047
252.680664	25501.980469
251.393555	25289.169922
250.107422	25295.998047
248.820312	25221.232422
247.533203	25208.646484
246.246094	25596.093750
244.958008	25167.953125
243.669922	25207.791016
242.381836	25179.685547
241.093750	25128.304688
239.804688	25173.945312
238.516602	24967.408203
237.227539	25187.595703
235.937500	25242.888672
234.648438	25063.595703
233.358398	24748.695312
232.068359	25026.884766
230.778320	25006.601562
229.487305	24926.275391
228.196289	24677.484375
226.905273	25313.693359
225.614258	24689.343750
224.322266	24864.632812
223.030273	24492.185547
221.738281	24659.703125
220.446289	24734.300781
219.153320	24383.363281
217.860352	24467.652344
216.567383	24352.767578
215.274414	24595.533203
213.980469	24356.978516
212.686523	24466.322266
211.392578	24258.791016
210.098633	24275.396484
208.803711	24361.513672
207.508789	24219.765625
206.213867	24205.478516
204.918945	24032.931641
203.623047	23899.041016
202.327148	24216.660156
201.031250	24082.785156
199.735352	23810.103516
198.438477	23826.753906
197.141602	23783.634766
195.844727	23809.919922
194.547852	23712.859375
193.250000	23727.583984
191.952148	23769.271484
190.654297	23683.826172
189.355469	23669.662109
188.057617	23588.117188
186.758789	23518.150391
185.458984	23251.912109
184.160156	23545.697266
182.860352	23527.718750
181.560547	23298.171875
180.260742	23407.164062
178.960938	23616.093750
177.660156	23511.607422
176.359375	23412.925781
175.058594	23081.771484
173.756836	23390.500000
172.455078	23339.916016
171.153320	23260.542969
169.851562	23277.203125
168.548828	23159.474609
167.247070	23185.742188
165.944336	23294.515625
164.640625	23201.791016
163.337891	23072.652344
162.034180	23112.337891
160.730469	22833.699219
159.426758	23072.794922
158.122070	22754.017578
156.817383	22906.794922
155.512695	23025.025391
154.208008	22698.773438
152.902344	22658.025391
151.596680	22561.759766
150.291016	22461.701172
148.985352	22443.988281
147.678711	22652.115234
146.372070	22500.427734
145.065430	22513.326172
143.758789	22545.343750
142.451172	22594.560547
141.143555	22314.894531
139.835938	22432.951172
138.528320	22157.244141
137.219727	22250.443359
135.911133	21982.515625
134.602539	22106.271484
133.292969	21828.923828
131.984375	21566.957031
130.674805	21257.363281
129.364258	21001.332031
128.054688	20974.394531
126.744141	20590.679688
125.433594	20039.244141
124.123047	19772.193359
122.811523	19364.138672
121.500000	18899.044922
120.188477	18070.060547
