#Wave		#Intensity
2199.120117	287149.718750
2198.186523	287599.875000
2197.252930	287689.531250
2196.320312	286134.625000
2195.386719	286543.187500
2194.453125	287404.093750
2193.518555	287076.093750
2192.584961	288070.437500
2191.650391	287675.500000
2190.716797	287561.625000
2189.782227	287905.250000
2188.847656	289254.468750
2187.912109	288816.750000
2186.977539	288261.531250
2186.041992	288005.937500
2185.107422	289089.531250
2184.171875	289277.468750
2183.236328	289337.062500
2182.299805	290222.156250
2181.364258	288847.187500
2180.427734	290258.125000
2179.492188	289185.343750
2178.555664	288812.375000
2177.619141	289162.875000
2176.681641	289742.781250
2175.745117	289199.093750
2174.807617	288965.062500
2173.871094	290139.468750
2172.933594	290585.406250
2171.996094	291089.812500
2171.057617	290053.125000
2170.120117	290021.656250
2169.181641	289859.625000
2168.244141	291232.437500
2167.305664	291733.593750
2166.367188	291723.156250
2165.427734	292192.062500
2164.489258	291939.218750
2163.550781	291574.593750
2162.611328	292298.812500
2161.671875	291787.875000
2160.732422	291646.968750
2159.792969	292141.937500
2158.852539	293333.656250
2157.913086	293115.406250
2156.972656	292259.031250
2156.032227	293245.375000
2155.091797	291748.625000
2154.151367	292208.468750
2153.209961	293473.281250
2152.269531	292814.125000
2151.328125	293586.937500
2150.386719	294595.875000
2149.445312	292925.125000
2148.503906	293809.000000
2147.561523	294623.562500
2146.620117	294644.250000
2145.677734	294134.218750
2144.735352	295054.375000
2143.792969	294496.687500
2142.850586	295177.750000
2141.908203	294938.406250
2140.964844	294582.468750
2140.021484	295183.593750
2139.078125	295993.906250
2138.134766	294959.562500
2137.191406	295531.156250
2136.248047	296179.343750
2135.303711	296133.375000
2134.359375	295541.906250
2133.415039	296086.468750
2132.470703	297567.937500
2131.526367	296706.531250
2130.582031	296832.468750
2129.636719	296415.968750
2128.691406	297221.718750
2127.746094	297749.500000
2126.800781	296349.281250
2125.855469	296535.937500
2124.910156	298049.531250
2123.963867	297894.843750
2123.017578	298496.000000
2122.071289	298613.375000
2121.125000	298931.500000
2120.178711	298803.125000
2119.232422	299247.843750
2118.285156	299338.593750
2117.337891	298534.375000
2116.390625	298878.562500
2115.443359	298222.468750
2114.496094	298439.937500
2113.548828	299203.375000
2112.600586	300111.593750
2111.652344	299002.125000
2110.704102	300221.187500
2109.755859	300949.468750
2108.807617	300976.375000
2107.859375	301208.812500
2106.910156	300716.593750
2105.960938	301333.625000
2105.011719	301070.687500
2104.062500	300589.218750
2103.113281	301924.718750
2102.163086	302941.187500
2101.213867	302646.500000
2100.263672	302683.500000
2099.313477	301989.031250
2098.363281	302631.187500
2097.413086	302205.218750
2096.461914	303244.156250
2095.511719	303394.031250
2094.560547	303520.187500
2093.609375	304618.812500
2092.658203	304113.968750
2091.706055	304828.437500
2090.754883	304018.968750
2089.802734	304415.375000
2088.850586	305084.781250
2087.898438	305748.656250
2086.946289	305385.843750
2085.994141	305133.375000
2085.041016	305983.187500
2084.088867	305903.875000
2083.135742	306351.843750
2082.182617	306700.000000
2081.229492	307889.843750
2080.275391	307186.156250
2079.322266	307806.593750
2078.368164	307991.687500
2077.414062	306486.375000
2076.459961	306999.125000
2075.505859	307797.281250
2074.551758	308623.937500
2073.596680	308227.281250
2072.642578	307521.781250
2071.687500	308269.500000
2070.732422	308548.375000
2069.777344	308094.406250
2068.821289	308810.187500
2067.866211	309169.906250
2066.910156	309118.812500
2065.954102	309841.875000
2064.998047	309772.375000
2064.041992	309417.906250
2063.084961	309996.718750
2062.128906	310674.625000
2061.171875	310450.812500
2060.214844	310365.531250
2059.257812	310946.343750
2058.300781	310236.812500
2057.343750	310726.031250
2056.385742	310972.250000
2055.427734	311260.156250
2054.469727	311699.312500
2053.511719	312140.937500
2052.553711	311564.906250
2051.594727	311542.062500
2050.636719	312121.656250
2049.677734	311579.781250
2048.718750	313394.906250
2047.759766	312722.656250
2046.800781	312746.468750
2045.840820	312176.187500
2044.881836	313031.125000
2043.921875	313096.531250
2042.961914	313331.156250
2042.001953	313016.312500
2041.041016	314096.968750
2040.081055	314120.437500
2039.120117	314411.937500
2038.159180	315424.125000
2037.198242	314523.718750
2036.237305	314781.156250
2035.276367	313967.000000
2034.314453	315098.093750
2033.353516	315545.062500
2032.391602	314531.000000
2031.429688	315248.156250
2030.467773	315242.687500
2029.504883	315143.656250
2028.542969	315774.593750
2027.580078	315937.781250
2026.617188	315399.843750
2025.654297	315441.000000
2024.691406	315456.187500
2023.727539	316810.531250
2022.764648	316815.062500
2021.800781	317037.531250
2020.836914	316816.343750
2019.873047	316330.656250
2018.909180	316726.781250
2017.944336	317164.218750
2016.980469	317137.531250
2016.015625	317797.625000
2015.050781	316573.625000
2014.085938	316800.906250
2013.121094	317494.343750
2012.155273	317084.250000
2011.190430	318251.218750
2010.224609	319039.812500
2009.258789	318168.843750
2008.292969	317730.406250
2007.326172	318924.875000
2006.360352	319717.906250
2005.393555	319576.843750
2004.426758	317897.000000
2003.459961	319051.781250
2002.493164	320004.500000
2001.526367	318795.843750
2000.558594	318792.000000
1999.591797	319261.000000
1998.624023	319864.187500
1997.656250	320286.312500
1996.687500	318985.656250
1995.719727	319970.687500
1994.750977	319568.937500
1993.783203	320026.937500
1992.814453	320843.468750
1991.845703	320178.562500
1990.875977	319622.250000
1989.907227	320598.312500
1988.937500	321215.562500
1987.968750	320814.031250
1986.999023	321314.968750
1986.029297	321630.125000
1985.058594	321146.218750
1984.088867	322267.812500
1983.118164	321822.593750
1982.147461	321344.000000
1981.176758	322194.531250
1980.206055	322681.656250
1979.235352	321837.531250
1978.263672	322872.812500
1977.292969	322759.875000
1976.321289	322508.000000
1975.349609	323004.875000
1974.376953	322380.031250
1973.405273	323956.937500
1972.433594	324962.406250
1971.460938	324329.812500
1970.488281	323625.437500
1969.515625	323265.687500
1968.542969	323882.500000
1967.569336	324062.343750
1966.596680	323938.968750
1965.623047	324794.187500
1964.649414	324360.000000
1963.675781	325014.562500
1962.701172	324688.281250
1961.727539	324274.843750
1960.752930	324821.250000
1959.779297	324418.187500
1958.804688	325133.656250
1957.829102	325394.875000
1956.854492	325299.593750
1955.879883	325071.000000
1954.904297	326152.375000
1953.928711	326449.093750
1952.953125	325948.750000
1951.977539	326839.781250
1951.000977	326357.468750
1950.025391	327501.625000
1949.048828	326553.281250
1948.072266	326135.218750
1947.095703	326339.343750
1946.119141	325929.125000
1945.141602	325762.156250
1944.165039	326349.968750
1943.187500	327520.750000
1942.209961	327898.312500
1941.232422	327774.500000
1940.254883	327768.343750
1939.276367	327749.406250
1938.297852	327679.343750
1937.320312	327691.062500
1936.341797	327592.875000
1935.362305	328327.468750
1934.383789	328009.562500
1933.405273	326838.875000
1932.425781	327943.375000
1931.446289	327735.437500
1930.466797	328254.937500
1929.487305	328238.343750
1928.506836	328048.281250
1927.527344	328297.000000
1926.546875	329144.968750
1925.566406	329469.906250
1924.585938	328073.781250
1923.605469	328003.625000
1922.624023	329457.593750
1921.642578	327486.281250
1920.662109	328776.718750
1919.680664	329547.062500
1918.698242	328496.125000
1917.716797	329536.156250
1916.735352	328903.093750
1915.752930	328934.625000
1914.770508	328971.218750
1913.788086	329165.562500
1912.805664	330173.968750
1911.822266	329648.125000
1910.839844	328885.937500
1909.856445	328805.468750
1908.873047	329879.281250
1907.889648	329038.593750
1906.906250	328881.875000
1905.921875	328870.031250
1904.938477	329406.937500
1903.954102	329417.843750
1902.969727	329474.437500
1901.985352	329609.750000
1901.000000	330331.437500
1900.015625	329621.218750
1899.030273	329170.093750
1898.044922	329287.531250
1897.059570	329486.093750
1896.074219	329468.968750
1895.088867	330986.187500
1894.102539	329515.812500
1893.116211	330953.875000
1892.129883	330388.937500
1891.143555	330957.031250
1890.157227	331337.406250
1889.169922	329771.906250
1888.183594	331005.968750
1887.196289	331315.187500
1886.208984	331201.437500
1885.221680	330826.906250
1884.233398	330184.187500
1883.246094	329908.656250
1882.257812	329716.718750
1881.269531	331121.218750
1880.281250	332892.000000
1879.292969	330562.531250
1878.304688	331880.156250
1877.315430	331366.875000
1876.326172	330656.625000
1875.336914	331184.968750
1874.347656	331291.125000
1873.358398	331791.375000
1872.368164	331430.062500
1871.378906	332041.187500
1870.388672	331897.093750
1869.398438	333482.406250
1868.408203	331942.187500
1867.416992	331147.031250
1866.426758	332272.375000
1865.435547	332352.812500
1864.444336	331663.906250
1863.453125	332939.812500
1862.461914	332684.718750
1861.469727	333087.687500
1860.478516	333886.250000
1859.486328	333265.656250
1858.494141	334537.593750
1857.501953	333954.843750
1856.509766	334384.906250
1855.516602	332991.437500
1854.523438	334252.406250
1853.530273	334198.750000
1852.537109	333689.531250
1851.543945	334657.718750
1850.550781	334241.656250
1849.556641	334842.093750
1848.562500	334353.187500
1847.569336	335685.187500
1846.574219	335528.187500
1845.580078	334222.312500
1844.585938	335113.718750
1843.590820	335791.218750
1842.595703	334933.187500
1841.600586	335314.000000
1840.605469	334900.937500
1839.610352	337255.500000
1838.614258	336111.531250
1837.618164	335201.437500
1836.622070	337321.250000
1835.625977	336446.343750
1834.629883	335998.312500
1833.633789	336024.562500
1832.636719	336053.281250
1831.639648	336107.093750
1830.642578	336732.531250
1829.645508	337558.281250
1828.648438	335827.093750
1827.650391	338291.687500
1826.652344	336325.437500
1825.655273	337108.031250
1824.657227	336928.531250
1823.658203	337312.562500
1822.660156	337656.375000
1821.661133	339096.531250
1820.663086	337843.000000
1819.664062	337475.750000
1818.664062	337046.093750
1817.665039	338705.468750
1816.666016	338245.687500
1815.666016	338511.281250
1814.666016	337799.156250
1813.666016	338509.687500
1812.666016	338662.593750
1811.665039	337420.968750
1810.665039	337663.937500
1809.664062	338036.718750
1808.663086	339338.468750
1807.662109	338664.437500
1806.661133	338078.000000
1805.659180	338954.656250
1804.658203	338902.468750
1803.656250	339875.968750
1802.654297	341265.781250
1801.652344	338434.187500
1800.649414	338988.156250
1799.647461	338377.375000
1798.644531	339135.593750
1797.641602	337819.500000
1796.638672	338896.562500
1795.634766	339644.281250
1794.631836	340199.906250
1793.627930	339016.500000
1792.625000	339908.218750
1791.621094	338558.406250
1790.616211	338628.250000
1789.612305	340164.281250
1788.607422	339240.718750
1787.603516	340308.250000
1786.598633	338825.125000
1785.593750	339387.343750
1784.587891	339228.062500
1783.583008	339991.406250
1782.577148	339357.156250
1781.571289	338752.968750
1780.565430	338822.500000
1779.559570	338608.718750
1778.553711	338546.562500
1777.546875	339266.906250
1776.541016	338295.593750
1775.534180	339149.812500
1774.527344	339373.062500
1773.519531	339382.750000
1772.512695	338734.687500
1771.504883	338647.687500
1770.497070	340049.312500
1769.489258	338813.531250
1768.481445	339145.656250
1767.473633	339234.656250
1766.464844	338604.593750
1765.457031	338282.093750
1764.448242	338832.125000
1763.439453	339047.437500
1762.429688	338628.375000
1761.420898	339247.375000
1760.411133	339603.625000
1759.401367	338570.562500
1758.391602	338847.531250
1757.381836	338881.812500
1756.372070	339215.531250
1755.361328	338205.468750
1754.350586	338979.531250
1753.339844	338776.250000
1752.329102	338137.750000
1751.318359	339692.781250
1750.307617	338176.625000
1749.295898	339048.843750
1748.284180	339446.218750
1747.272461	338662.281250
1746.260742	338884.156250
1745.249023	338137.625000
1744.236328	337897.625000
1743.223633	339025.687500
1742.210938	339358.375000
1741.198242	339809.406250
1740.185547	337809.593750
1739.171875	338665.375000
1738.159180	338827.593750
1737.145508	338970.031250
1736.131836	339386.125000
1735.118164	338672.750000
1734.103516	338928.500000
1733.089844	339201.375000
1732.075195	339050.281250
1731.060547	338719.343750
1730.045898	339839.562500
1729.030273	339055.343750
1728.015625	338076.843750
1727.000000	338430.750000
1725.984375	339675.718750
1724.968750	339283.406250
1723.953125	339110.250000
1722.937500	339931.187500
1721.920898	339920.312500
1720.904297	338814.843750
1719.887695	340953.531250
1718.871094	340453.125000
1717.854492	340115.125000
1716.836914	339531.468750
1715.820312	339179.000000
1714.802734	339819.281250
1713.785156	340577.250000
1712.766602	340789.656250
1711.749023	340729.375000
1710.730469	340877.843750
1709.711914	339923.968750
1708.693359	341147.531250
1707.674805	339526.406250
1706.656250	340121.468750
1705.636719	340061.312500
1704.618164	341033.718750
1703.598633	342167.656250
1702.579102	341070.000000
1701.558594	341958.343750
1700.539062	342155.187500
1699.518555	341352.125000
1698.498047	342105.156250
1697.477539	341831.468750
1696.457031	341136.625000
1695.436523	342148.843750
1694.415039	341189.718750
1693.393555	340923.687500
1692.372070	341984.312500
1691.350586	341475.937500
1690.329102	341694.406250
1689.306641	340435.250000
1688.285156	341876.687500
1687.262695	342305.218750
1686.240234	340897.468750
1685.216797	341822.218750
1684.194336	341610.156250
1683.170898	341706.031250
1682.148438	341056.718750
1681.125000	340246.375000
1680.100586	340686.781250
1679.077148	340741.187500
1678.052734	340815.125000
1677.029297	342944.343750
1676.004883	340743.187500
1674.980469	341378.250000
1673.955078	342435.156250
1672.930664	342113.468750
1671.905273	341648.000000
1670.879883	341051.000000
1669.854492	341358.687500
1668.829102	341190.937500
1667.803711	342110.187500
1666.777344	342000.812500
1665.750977	341567.437500
1664.724609	341273.031250
1663.698242	341229.593750
1662.671875	340794.093750
1661.644531	341790.250000
1660.618164	341746.687500
1659.590820	341080.125000
1658.563477	341316.500000
1657.535156	341224.343750
1656.507812	342321.625000
1655.479492	340346.968750
1654.451172	340622.156250
1653.422852	340955.562500
1652.394531	341198.906250
1651.366211	340107.968750
1650.336914	341026.843750
1649.307617	340570.343750
1648.278320	340053.281250
1647.249023	340009.937500
1646.219727	339777.218750
1645.189453	340569.031250
1644.160156	341030.437500
1643.129883	339768.656250
1642.099609	339919.437500
1641.068359	339958.562500
1640.038086	339124.500000
1639.006836	340252.562500
1637.975586	339539.937500
1636.944336	339714.812500
1635.913086	339014.625000
1634.881836	338586.093750
1633.849609	338884.562500
1632.817383	339277.375000
1631.786133	339207.437500
1630.752930	338839.656250
1629.720703	337646.375000
1628.688477	338646.687500
1627.655273	337964.531250
1626.622070	338020.656250
1625.588867	337948.500000
1624.555664	337365.968750
1623.521484	338546.750000
1622.487305	336931.718750
1621.454102	337713.250000
1620.419922	336650.062500
1619.384766	337329.781250
1618.350586	338122.875000
1617.315430	336944.156250
1616.281250	337505.062500
1615.246094	336244.750000
1614.209961	337484.125000
1613.174805	336588.781250
1612.139648	337069.656250
1611.103516	336737.000000
1610.067383	336486.531250
1609.031250	335570.218750
1607.995117	336463.375000
1606.958008	337013.718750
1605.920898	336454.656250
1604.884766	336235.687500
1603.847656	336788.156250
1602.809570	336906.593750
1601.772461	335921.406250
1600.734375	334922.062500
1599.696289	335736.875000
1598.659180	336216.593750
1597.620117	336946.562500
1596.582031	336328.093750
1595.542969	335572.625000
1594.504883	335671.750000
1593.465820	336853.625000
1592.426758	336461.687500
1591.386719	336575.000000
1590.347656	336661.781250
1589.307617	335659.343750
1588.267578	336700.625000
1587.227539	335919.625000
1586.187500	335040.343750
1585.146484	336994.218750
1584.106445	336146.250000
1583.065430	336790.156250
1582.024414	335594.312500
1580.983398	335712.250000
1579.941406	336799.937500
1578.900391	337229.625000
1577.858398	336884.000000
1576.816406	336819.187500
1575.774414	336982.312500
1574.732422	337294.062500
1573.689453	336219.593750
1572.646484	336483.406250
1571.603516	337324.781250
1570.560547	336835.687500
1569.517578	336289.218750
1568.473633	337122.968750
1567.430664	337388.687500
1566.386719	336317.875000
1565.342773	337847.968750
1564.298828	337416.656250
1563.253906	337440.312500
1562.208984	337262.906250
1561.165039	337047.250000
1560.120117	336221.562500
1559.074219	336702.250000
1558.029297	337952.843750
1556.983398	338174.750000
1555.938477	337939.937500
1554.892578	338900.375000
1553.846680	338522.093750
1552.799805	338715.000000
1551.753906	337897.281250
1550.707031	337872.843750
1549.660156	338392.937500
1548.613281	337807.250000
1547.566406	338265.062500
1546.518555	339355.250000
1545.470703	338908.093750
1544.423828	338387.125000
1543.375000	338572.468750
1542.327148	338967.656250
1541.279297	338885.718750
1540.230469	339159.062500
1539.181641	338524.000000
1538.132812	338139.437500
1537.083984	338329.312500
1536.035156	338831.250000
1534.985352	339378.250000
1533.935547	338936.593750
1532.885742	338614.156250
1531.835938	340329.906250
1530.786133	338471.843750
1529.735352	337885.406250
1528.684570	339095.843750
1527.633789	338285.812500
1526.583008	337754.406250
1525.532227	338723.968750
1524.480469	339070.125000
1523.429688	338954.875000
1522.377930	338005.281250
1521.326172	337569.375000
1520.273438	338730.531250
1519.221680	337629.375000
1518.168945	338003.781250
1517.116211	338423.156250
1516.063477	337652.687500
1515.010742	337081.906250
1513.958008	337862.000000
1512.904297	337872.812500
1511.850586	337129.031250
1510.796875	336425.843750
1509.743164	337229.156250
1508.688477	337621.875000
1507.634766	337167.906250
1506.580078	337169.281250
1505.525391	337331.843750
1504.470703	336901.812500
1503.415039	337547.718750
1502.360352	338108.062500
1501.304688	335444.437500
1500.249023	336177.843750
1499.193359	335412.093750
1498.137695	335700.125000
1497.081055	335834.187500
1496.024414	336604.812500
1494.967773	335912.843750
1493.911133	336068.031250
1492.854492	335156.406250
1491.796875	335836.687500
1490.740234	335563.781250
1489.682617	336149.156250
1488.625000	335469.750000
1487.567383	335319.906250
1486.508789	333995.843750
1485.450195	335483.406250
1484.392578	335147.031250
1483.333008	334428.187500
1482.274414	334240.843750
1481.215820	333831.656250
1480.156250	333727.062500
1479.096680	333967.000000
1478.037109	332812.468750
1476.977539	334399.437500
1475.917969	334672.156250
1474.857422	333206.781250
1473.796875	333340.468750
1472.736328	333502.343750
1471.675781	332417.406250
1470.615234	332942.281250
1469.553711	332870.875000
1468.492188	332073.937500
1467.430664	332363.031250
1466.369141	332701.468750
1465.307617	333385.843750
1464.245117	333399.093750
1463.182617	332397.968750
1462.120117	332326.656250
1461.057617	331495.437500
1459.995117	333155.500000
1458.931641	332197.437500
1457.869141	331801.656250
1456.805664	332000.812500
1455.742188	333067.218750
1454.677734	331691.437500
1453.614258	331375.875000
1452.549805	332519.312500
1451.485352	331757.406250
1450.420898	332141.781250
1449.356445	331506.968750
1448.291016	331496.843750
1447.226562	331162.781250
1446.161133	331997.531250
1445.095703	330335.437500
1444.030273	331064.437500
1442.963867	330202.906250
1441.897461	330542.343750
1440.832031	331020.000000
1439.764648	330414.406250
1438.698242	330835.625000
1437.631836	330584.125000
1436.564453	330705.218750
1435.497070	330549.843750
1434.429688	330345.343750
1433.362305	330623.250000
1432.294922	329868.593750
1431.226562	330256.500000
1430.158203	330375.093750
1429.089844	330594.281250
1428.021484	331154.937500
1426.953125	329502.500000
1425.883789	329913.468750
1424.814453	330167.562500
1423.745117	330010.125000
1422.675781	330514.187500
1421.606445	330141.687500
1420.536133	330867.531250
1419.465820	330156.312500
1418.395508	329407.968750
1417.325195	330023.750000
1416.254883	329878.093750
1415.183594	329905.218750
1414.112305	329012.687500
1413.041016	328344.468750
1411.969727	329816.156250
1410.898438	329087.375000
1409.826172	328050.937500
1408.754883	328192.562500
1407.682617	329103.562500
1406.609375	329550.281250
1405.537109	328913.031250
1404.464844	328788.687500
1403.391602	329055.781250
1402.318359	328465.531250
1401.245117	329680.500000
1400.170898	330066.031250
1399.097656	329613.218750
1398.023438	328760.187500
1396.949219	328482.312500
1395.875000	329388.968750
1394.800781	329941.625000
1393.725586	328137.687500
1392.651367	328313.593750
1391.576172	328131.312500
1390.500977	327814.218750
1389.424805	328410.781250
1388.349609	327198.968750
1387.273438	326619.625000
1386.197266	327571.500000
1385.121094	327208.281250
1384.044922	327518.687500
1382.967773	327299.531250
1381.891602	327447.281250
1380.814453	327386.031250
1379.737305	326575.218750
1378.659180	328057.156250
1377.582031	326687.375000
1376.503906	327032.156250
1375.425781	327750.218750
1374.347656	326051.937500
1373.269531	326772.156250
1372.190430	327047.125000
1371.112305	326777.375000
1370.033203	326669.875000
1368.954102	326011.062500
1367.874023	326797.781250
1366.794922	325648.218750
1365.714844	325332.593750
1364.634766	325674.468750
1363.554688	325671.375000
1362.474609	326323.156250
1361.394531	325084.406250
1360.313477	324940.281250
1359.232422	325048.281250
1358.151367	325223.281250
1357.070312	324357.812500
1355.988281	325036.750000
1354.907227	325047.531250
1353.825195	325721.468750
1352.743164	324877.281250
1351.660156	325682.625000
1350.578125	324351.406250
1349.495117	324152.125000
1348.412109	324370.718750
1347.329102	324427.687500
1346.246094	324715.375000
1345.162109	324786.062500
1344.079102	323802.406250
1342.995117	324784.312500
1341.911133	323485.031250
1340.827148	323233.031250
1339.742188	324802.312500
1338.657227	323697.312500
1337.573242	324528.468750
1336.488281	323393.937500
1335.402344	322748.187500
1334.317383	324343.718750
1333.231445	324957.656250
1332.145508	323743.218750
1331.059570	323887.375000
1329.973633	323992.375000
1328.886719	323977.656250
1327.800781	323493.562500
1326.713867	323759.531250
1325.626953	323590.718750
1324.539062	323028.718750
1323.452148	322643.968750
1322.364258	322854.687500
1321.276367	323060.718750
1320.188477	322830.062500
1319.100586	322592.593750
1318.012695	322258.718750
1316.923828	321667.750000
1315.834961	323288.187500
1314.746094	323126.500000
1313.657227	322726.156250
1312.567383	322667.875000
1311.477539	322662.406250
1310.388672	321629.125000
1309.297852	322628.437500
1308.208008	322210.125000
1307.118164	322186.312500
1306.027344	320456.906250
1304.936523	322097.437500
1303.845703	320856.781250
1302.754883	321955.875000
1301.663086	321510.562500
1300.571289	321386.062500
1299.480469	320444.062500
1298.387695	321398.125000
1297.295898	320346.562500
1296.204102	320517.531250
1295.111328	319482.500000
1294.018555	320600.750000
1292.925781	321155.843750
1291.832031	320873.656250
1290.739258	320113.656250
1289.645508	319742.562500
1288.551758	320187.625000
1287.458008	319848.656250
1286.364258	319470.906250
1285.269531	318391.906250
1284.174805	319501.562500
1283.081055	319345.593750
1281.985352	318627.937500
1280.890625	319335.093750
1279.794922	319097.031250
1278.700195	318740.343750
1277.604492	318837.843750
1276.508789	317888.156250
1275.412109	318022.250000
1274.316406	317900.875000
1273.219727	318306.187500
1272.123047	317108.781250
1271.026367	318056.531250
1269.928711	317401.937500
1268.832031	317490.312500
1267.734375	317612.812500
1266.636719	317345.781250
1265.539062	317053.781250
1264.440430	316484.125000
1263.342773	316276.593750
1262.244141	316467.406250
1261.145508	316250.812500
1260.046875	316150.343750
1258.947266	316222.750000
1257.848633	315931.218750
1256.749023	315985.437500
1255.649414	316419.281250
1254.549805	315939.187500
1253.449219	315459.250000
1252.348633	314629.562500
1251.249023	316153.750000
1250.148438	316321.343750
1249.046875	314183.812500
1247.946289	315371.156250
1246.844727	313915.593750
1245.743164	315120.687500
1244.641602	315347.250000
1243.540039	315639.531250
1242.438477	314740.718750
1241.335938	315001.187500
1240.233398	314499.625000
1239.130859	314048.125000
1238.028320	314222.406250
1236.924805	314249.312500
1235.821289	315005.843750
1234.717773	315188.906250
1233.614258	314366.093750
1232.510742	313770.062500
1231.406250	314528.375000
1230.302734	314000.406250
1229.198242	314301.125000
1228.093750	314350.500000
1226.988281	314101.125000
1225.883789	313768.156250
1224.778320	315077.468750
1223.672852	315092.687500
1222.567383	313952.437500
1221.460938	313992.687500
1220.355469	314607.031250
1219.249023	314751.062500
1218.142578	314813.718750
1217.036133	314544.218750
1215.928711	313976.687500
1214.822266	314265.218750
1213.714844	313700.156250
1212.607422	314239.187500
1211.500000	313593.031250
1210.391602	314156.687500
1209.284180	314162.843750
1208.175781	314755.468750
1207.067383	313881.875000
1205.958984	313847.406250
1204.849609	314421.718750
1203.740234	314596.781250
1202.631836	314014.531250
1201.521484	314536.625000
1200.412109	314846.718750
1199.302734	314073.218750
1198.192383	315419.250000
1197.082031	313047.187500
1195.971680	314291.562500
1194.861328	315206.843750
1193.750000	313934.312500
1192.638672	314516.281250
1191.527344	313469.281250
1190.416016	314782.125000
1189.304688	313908.593750
1188.192383	314445.125000
1187.081055	313439.281250
1185.968750	314611.781250
1184.855469	314866.937500
1183.743164	315310.750000
1182.629883	313153.031250
1181.517578	314818.781250
1180.404297	313517.500000
1179.290039	314951.281250
1178.176758	313987.125000
1177.062500	314329.531250
1175.948242	313852.718750
1174.833984	313665.531250
1173.719727	313844.000000
1172.605469	313481.906250
1171.490234	313346.406250
1170.375000	313688.468750
1169.259766	314440.562500
1168.144531	313746.906250
1167.028320	313178.937500
1165.912109	313009.937500
1164.796875	312563.218750
1163.679688	313086.375000
1162.563477	313177.187500
1161.447266	313095.562500
1160.330078	313060.937500
1159.212891	311880.562500
1158.095703	312421.187500
1156.977539	311858.750000
1155.860352	311781.843750
1154.742188	311769.812500
1153.624023	311974.625000
1152.505859	311251.656250
1151.386719	312283.437500
1150.268555	311002.000000
1149.149414	311043.687500
1148.030273	310243.187500
1146.910156	311169.343750
1145.791016	310639.281250
1144.670898	311259.156250
1143.550781	310747.093750
1142.430664	310328.937500
1141.310547	309752.500000
1140.190430	309611.281250
1139.069336	308787.593750
1137.948242	309560.906250
1136.827148	308929.218750
1135.705078	308868.468750
1134.583984	309344.875000
1133.461914	309640.593750
1132.339844	308086.875000
1131.217773	308621.062500
1130.095703	308382.156250
1128.972656	308056.500000
1127.849609	308997.781250
1126.726562	308313.687500
1125.603516	308177.343750
1124.479492	307834.093750
1123.356445	308245.156250
1122.232422	307397.062500
1121.108398	308063.781250
1119.984375	308427.875000
1118.859375	307333.375000
1117.734375	307050.593750
1116.609375	306850.125000
1115.484375	307809.562500
1114.359375	307173.593750
1113.233398	307661.718750
1112.108398	307019.312500
1110.982422	307604.968750
1109.856445	306660.843750
1108.729492	306218.656250
1107.603516	307527.562500
1106.476562	306701.500000
1105.349609	307120.250000
1104.222656	307605.375000
1103.094727	306302.968750
1101.966797	306047.500000
1100.839844	306641.125000
1099.711914	306941.937500
1098.583008	306613.343750
1097.455078	307235.281250
1096.326172	306578.906250
1095.197266	306257.125000
1094.068359	305962.062500
1092.939453	307165.875000
1091.809570	306377.093750
1090.679688	306825.718750
1089.549805	305543.843750
1088.419922	305954.812500
1087.290039	306434.156250
1086.159180	308218.125000
1085.028320	307146.906250
1083.897461	305373.093750
1082.766602	306493.156250
1081.635742	306945.406250
1080.503906	307105.812500
1079.372070	307241.875000
1078.240234	305787.625000
1077.108398	305449.093750
1075.975586	306497.156250
1074.843750	306476.437500
1073.710938	306422.593750
1072.577148	306547.500000
1071.444336	306114.187500
1070.311523	307390.531250
1069.177734	306302.187500
1068.043945	308270.343750
1066.910156	306772.156250
1065.775391	306109.875000
1064.640625	305461.062500
1063.506836	307289.093750
1062.372070	306644.656250
1061.236328	307108.375000
1060.101562	307371.500000
1058.965820	307031.218750
1057.830078	307327.250000
1056.694336	306586.500000
1055.558594	307313.781250
1054.421875	305928.656250
1053.285156	306477.593750
1052.148438	306084.968750
1051.011719	306339.000000
1049.875000	306085.062500
1048.737305	306295.000000
1047.599609	305366.406250
1046.461914	305136.906250
1045.324219	306667.218750
1044.186523	305475.437500
1043.047852	306539.531250
1041.909180	305752.187500
1040.770508	306864.125000
1039.631836	305089.281250
1038.492188	305729.062500
1037.352539	304817.343750
1036.212891	304706.656250
1035.073242	305504.031250
1033.933594	305277.000000
1032.792969	304881.218750
1031.652344	305040.187500
1030.511719	305385.375000
1029.371094	304709.250000
1028.230469	305194.562500
1027.088867	304667.656250
1025.947266	304175.968750
1024.805664	305009.250000
1023.664062	305139.406250
1022.521484	304941.187500
1021.378906	304977.187500
1020.236328	304551.500000
1019.093750	304821.593750
1017.951172	305321.281250
1016.807617	305024.718750
1015.664062	304562.093750
1014.520508	303937.843750
1013.376953	303744.406250
1012.233398	304519.093750
1011.088867	305046.593750
1009.944336	304110.281250
1008.799805	303980.218750
1007.655273	304020.531250
1006.509766	304276.968750
1005.364258	305041.906250
1004.218750	304029.968750
1003.073242	303795.250000
1001.927734	303047.906250
1000.781250	304445.000000
999.634766	304432.750000
998.488281	304919.812500
997.341797	303843.531250
996.195312	304493.968750
995.047852	304414.093750
993.900391	303833.093750
992.752930	304731.468750
991.605469	304316.125000
990.457031	303933.593750
989.308594	304459.125000
988.160156	303928.625000
987.011719	304153.562500
985.863281	304765.750000
984.713867	303902.593750
983.564453	303637.937500
982.415039	303714.812500
981.265625	304296.125000
980.115234	304059.781250
978.965820	304488.625000
977.815430	304145.812500
976.664062	303955.187500
975.513672	304303.406250
974.362305	303643.625000
973.211914	303557.406250
972.060547	303340.937500
970.908203	304277.281250
969.756836	304288.625000
968.604492	304720.937500
967.452148	304076.906250
966.299805	304702.156250
965.147461	304552.875000
963.994141	303720.531250
962.841797	303643.000000
961.688477	305069.843750
960.535156	304370.062500
959.380859	304233.875000
958.226562	304492.062500
957.073242	304312.593750
955.918945	303061.125000
954.763672	304497.250000
953.609375	303828.562500
952.454102	303859.218750
951.298828	303537.125000
950.143555	304227.750000
948.988281	304543.843750
947.832031	303696.156250
946.675781	304926.968750
945.519531	303424.375000
944.363281	303385.781250
943.207031	304315.500000
942.049805	304609.562500
940.892578	303285.218750
939.735352	303896.875000
938.578125	303253.437500
937.419922	304203.843750
936.261719	303161.187500
935.103516	302867.906250
933.945312	303088.375000
932.787109	303019.593750
931.627930	303112.625000
930.468750	302716.000000
929.309570	302688.250000
928.150391	302692.843750
926.990234	302742.718750
925.831055	302258.000000
924.670898	301465.281250
923.509766	303262.656250
922.349609	302638.062500
921.188477	301505.406250
920.028320	301932.187500
918.867188	301471.750000
917.705078	301506.593750
916.543945	302615.343750
915.381836	300640.156250
914.219727	301660.406250
913.057617	301905.906250
911.895508	301338.406250
910.732422	300730.218750
909.569336	301846.406250
908.406250	300043.250000
907.243164	300712.125000
906.080078	300792.031250
904.916016	300848.250000
903.751953	300090.406250
902.587891	300666.375000
901.423828	300709.656250
900.258789	300795.843750
899.093750	300869.125000
897.928711	300212.750000
896.763672	299771.156250
895.598633	299842.406250
894.432617	298774.781250
893.266602	299929.000000
892.100586	299768.562500
890.934570	299571.750000
889.767578	299713.625000
888.600586	300138.250000
887.433594	299146.625000
886.266602	299350.562500
885.099609	299834.937500
883.931641	300257.031250
882.763672	300805.250000
881.595703	299168.000000
880.427734	298243.937500
879.258789	299053.218750
878.089844	299686.750000
876.920898	298763.062500
875.751953	298810.500000
874.583008	299056.750000
873.413086	299600.000000
872.243164	298563.687500
871.073242	299816.187500
869.903320	299596.281250
868.732422	299118.000000
867.562500	299280.531250
866.391602	299534.812500
865.220703	299453.812500
864.048828	299767.687500
862.876953	299816.843750
861.706055	299413.625000
860.534180	299733.687500
859.361328	300695.625000
858.189453	299311.531250
857.016602	300079.125000
855.843750	300571.437500
854.670898	300106.656250
853.497070	299588.750000
852.324219	300694.406250
851.150391	300319.281250
849.976562	300600.187500
848.802734	301962.656250
847.627930	300985.000000
846.453125	300984.625000
845.278320	301184.312500
844.103516	301360.468750
842.928711	301264.281250
841.752930	301425.468750
840.577148	301225.062500
839.401367	300775.968750
838.225586	302374.093750
837.048828	301198.062500
835.873047	302247.281250
834.696289	301974.593750
833.518555	301039.281250
832.341797	301620.656250
831.164062	302186.937500
829.987305	302196.781250
828.808594	302881.593750
827.630859	301849.281250
826.453125	303554.437500
825.274414	302607.218750
824.095703	303022.031250
822.916992	301979.812500
821.737305	302850.375000
820.558594	302677.687500
819.378906	302663.968750
818.199219	301609.812500
817.018555	301852.656250
815.838867	303457.406250
814.658203	303386.312500
813.477539	302601.687500
812.296875	302820.812500
811.115234	302904.375000
809.934570	302666.187500
808.752930	301888.562500
807.571289	302080.093750
806.388672	302229.250000
805.207031	302735.718750
804.024414	303783.250000
802.841797	303460.531250
801.659180	302565.187500
800.475586	302771.093750
799.291992	302345.187500
798.109375	303717.031250
796.924805	303379.812500
795.741211	302742.843750
794.556641	302317.187500
793.373047	301845.281250
792.188477	303148.343750
791.002930	302324.031250
789.818359	301953.593750
788.632812	303211.593750
787.447266	303496.937500
786.261719	302719.531250
785.076172	303190.343750
783.889648	302680.906250
782.703125	302211.656250
781.516602	302191.375000
780.330078	303106.343750
779.142578	303252.250000
777.956055	301644.031250
776.768555	302682.750000
775.580078	302594.968750
774.392578	302195.718750
773.204102	302219.531250
772.015625	302369.562500
770.827148	302500.562500
769.638672	302162.562500
768.449219	301997.093750
767.260742	301863.187500
766.071289	301836.531250
764.880859	301959.031250
763.691406	302283.218750
762.500977	300987.656250
761.310547	302025.937500
760.120117	301312.531250
758.929688	300945.781250
757.738281	301586.718750
756.546875	301908.406250
755.355469	301539.625000
754.164062	301905.250000
752.972656	301595.312500
751.780273	302443.062500
750.587891	300906.531250
749.395508	301848.406250
748.202148	301180.250000
747.009766	300665.312500
745.816406	301543.812500
744.623047	301188.156250
743.428711	301917.500000
742.235352	301515.812500
741.041016	302171.531250
739.846680	300905.437500
738.652344	301071.281250
737.457031	302136.781250
736.262695	301701.875000
735.067383	301656.187500
733.872070	300623.406250
732.675781	301554.343750
731.480469	300687.093750
730.284180	300012.437500
729.087891	300782.000000
727.891602	301152.218750
726.694336	302040.312500
725.497070	301992.437500
724.299805	301704.406250
723.102539	302030.250000
721.905273	301199.593750
720.707031	301130.968750
719.508789	300348.718750
718.310547	302022.250000
717.112305	302047.312500
715.913086	300850.312500
714.713867	302078.625000
713.514648	301119.687500
712.315430	301520.000000
711.116211	300761.562500
709.916016	302343.125000
708.715820	301693.062500
707.515625	302255.406250
706.314453	302440.593750
705.114258	301561.843750
703.913086	301963.562500
702.711914	301996.750000
701.510742	301436.875000
700.308594	302583.125000
699.106445	301698.875000
697.904297	302476.531250
696.702148	302384.750000
695.500000	302584.062500
694.296875	302612.812500
693.093750	302302.843750
691.890625	301756.125000
690.686523	302379.093750
689.483398	302972.718750
688.279297	303923.312500
687.075195	302301.187500
685.871094	301680.187500
684.666016	303543.562500
683.460938	303227.531250
682.255859	302965.562500
681.050781	302699.500000
679.845703	302945.781250
678.639648	302518.062500
677.433594	302816.062500
676.227539	302349.156250
675.020508	302506.125000
673.814453	303162.375000
672.607422	303053.968750
671.400391	303655.968750
670.193359	302665.375000
668.985352	302981.468750
667.777344	303098.750000
666.569336	302648.937500
665.361328	303314.500000
664.153320	303235.093750
662.944336	302944.687500
661.735352	303351.312500
660.526367	302420.031250
659.317383	302834.843750
658.107422	302862.968750
656.897461	302461.281250
655.687500	302745.625000
654.477539	301910.281250
653.266602	301979.843750
652.055664	301733.406250
650.844727	302630.781250
649.633789	302062.312500
648.422852	301929.468750
647.210938	301485.093750
645.999023	301236.843750
644.787109	300891.750000
643.575195	302033.593750
642.362305	300727.656250
641.149414	300055.031250
639.936523	300681.093750
638.723633	301135.875000
637.509766	301141.343750
636.295898	299882.031250
635.082031	300680.593750
633.868164	300548.156250
632.654297	300450.718750
631.439453	300587.968750
630.224609	300947.406250
629.009766	299981.625000
627.793945	299546.968750
626.579102	299451.812500
625.363281	300500.031250
624.147461	299882.468750
622.930664	300107.937500
621.714844	300154.500000
620.498047	299901.031250
619.281250	300397.531250
618.064453	299114.968750
616.846680	299440.937500
615.628906	299397.156250
614.411133	298891.468750
613.193359	300535.000000
611.975586	299124.250000
610.756836	299259.031250
609.538086	299592.718750
608.319336	298607.468750
607.099609	299792.156250
605.880859	300105.000000
604.661133	299474.781250
603.441406	299373.562500
602.221680	299038.781250
601.000977	299314.593750
599.780273	298764.843750
598.559570	299351.875000
597.338867	299600.843750
596.117188	300105.593750
594.896484	300518.031250
593.674805	300369.593750
592.453125	299932.687500
591.230469	300455.343750
590.007812	299568.625000
588.786133	299502.218750
587.562500	300545.968750
586.339844	300714.437500
585.116211	300980.906250
583.893555	301267.718750
582.669922	301135.593750
581.445312	300411.156250
580.221680	301527.031250
578.997070	300563.843750
577.772461	300864.687500
576.547852	300930.687500
575.322266	300796.656250
574.096680	301066.625000
572.871094	300318.562500
571.645508	301518.531250
570.419922	300370.968750
569.193359	300436.906250
567.966797	301377.250000
566.740234	301230.968750
565.513672	300499.937500
564.286133	301392.843750
563.058594	301165.156250
561.831055	301464.968750
560.603516	300595.937500
559.375000	301345.593750
558.146484	300700.750000
556.917969	301794.000000
555.689453	299293.781250
554.460938	300875.062500
553.231445	299779.250000
552.001953	300095.000000
550.772461	300618.000000
549.541992	298831.750000
548.312500	299198.281250
547.082031	299790.187500
545.851562	300278.250000
544.620117	298930.031250
543.388672	298496.093750
542.158203	298301.906250
540.926758	297423.656250
539.694336	298481.968750
538.462891	297963.156250
537.230469	297673.812500
535.998047	296609.687500
534.764648	297253.562500
533.532227	296887.406250
532.298828	296142.281250
531.065430	296064.250000
529.832031	295836.281250
528.597656	296601.218750
527.364258	295141.531250
526.129883	295359.406250
524.894531	295348.375000
523.660156	295331.250000
522.424805	295140.031250
521.189453	294876.000000
519.954102	294510.906250
518.718750	294374.531250
517.482422	293872.093750
516.246094	294192.906250
515.009766	294119.312500
513.773438	294084.125000
512.536133	294028.750000
511.299805	294468.437500
510.062500	293435.093750
508.824219	293341.437500
507.586914	293635.593750
506.348633	293327.843750
505.110352	292947.531250
503.872070	294057.031250
502.632812	294251.875000
501.393555	293108.843750
500.154297	293479.250000
498.915039	292542.531250
497.675781	293126.656250
496.435547	293254.875000
495.195312	293002.031250
493.955078	293450.656250
492.714844	292819.031250
491.473633	293668.406250
490.232422	294124.687500
488.991211	294306.875000
487.750000	293514.406250
486.507812	294640.781250
485.265625	294120.250000
484.023438	293899.750000
482.781250	294385.562500
481.538086	294796.750000
480.294922	294620.437500
479.051758	295465.750000
477.808594	295669.375000
476.565430	294296.906250
475.321289	294671.468750
474.077148	294199.906250
472.833008	294606.468750
471.587891	294721.593750
470.342773	293866.656250
469.097656	294849.281250
467.852539	293996.625000
466.607422	294073.593750
465.361328	294596.000000
464.115234	293721.781250
462.869141	294063.500000
461.623047	294501.343750
460.375977	294291.343750
459.128906	294372.062500
457.881836	293600.875000
456.633789	292312.875000
455.386719	293560.093750
454.138672	292545.031250
452.890625	291938.937500
451.642578	292758.906250
450.393555	293152.093750
449.144531	292522.156250
447.895508	292362.812500
446.646484	291246.968750
445.396484	291784.125000
444.146484	290898.843750
442.896484	290757.843750
441.646484	290326.968750
440.396484	289898.250000
439.145508	289413.687500
437.894531	290120.343750
436.643555	290315.250000
435.391602	289321.437500
434.139648	289178.843750
432.887695	288527.062500
431.635742	288777.968750
430.383789	287142.375000
429.130859	287918.312500
427.877930	287815.937500
426.625000	287157.000000
425.371094	287459.718750
424.118164	287227.843750
422.864258	287693.875000
421.610352	287565.687500
420.355469	285512.125000
419.101562	286546.125000
417.846680	286438.093750
416.591797	287158.781250
415.335938	286423.281250
414.081055	285980.750000
412.825195	286129.687500
411.569336	286638.812500
410.312500	286494.968750
409.056641	285579.156250
407.799805	285857.312500
406.542969	285787.250000
405.285156	286089.093750
404.028320	286516.062500
402.770508	285312.781250
401.512695	285103.718750
400.254883	285608.062500
398.996094	286261.250000
397.737305	286628.093750
396.478516	284675.187500
395.219727	285598.156250
393.960938	285800.125000
392.701172	285434.343750
391.441406	285582.656250
390.181641	285756.687500
388.920898	285045.906250
387.660156	284511.875000
386.399414	284925.906250
385.138672	285000.750000
383.877930	284451.156250
382.616211	285134.468750
381.354492	284190.718750
380.092773	284525.125000
378.830078	283946.250000
377.568359	283498.312500
376.305664	284145.437500
375.041992	283394.718750
373.779297	282341.437500
372.515625	283014.093750
371.251953	282040.406250
369.988281	282918.562500
368.724609	282653.250000
367.459961	282247.656250
366.195312	281601.000000
364.930664	282243.312500
363.666016	281284.625000
362.400391	281237.156250
361.134766	279328.781250
359.869141	280415.375000
358.602539	279548.562500
357.336914	278934.750000
356.070312	280174.750000
354.803711	279924.156250
353.536133	279140.906250
352.269531	278312.562500
351.001953	278618.687500
349.734375	277790.718750
348.465820	277254.875000
347.198242	277655.625000
345.929688	276674.531250
344.661133	277303.781250
343.392578	276567.437500
342.123047	275608.750000
340.853516	275861.625000
339.583984	276327.062500
338.314453	275760.718750
337.043945	275200.468750
335.773438	274825.375000
334.502930	275589.687500
333.232422	275173.343750
331.960938	274460.187500
330.690430	274138.562500
329.417969	274139.531250
328.146484	273778.781250
326.875000	274974.687500
325.602539	274250.375000
324.330078	273954.593750
323.056641	274800.125000
321.784180	274891.218750
320.510742	273539.093750
319.237305	273610.718750
317.963867	272781.406250
316.689453	272935.562500
315.415039	273744.937500
314.140625	273335.812500
312.866211	272097.218750
311.590820	273739.625000
310.316406	272409.281250
309.041016	272126.125000
307.764648	272244.812500
306.489258	271513.062500
305.212891	272229.312500
303.936523	270871.062500
302.660156	270889.968750
301.382812	270280.375000
300.105469	270078.156250
298.828125	269966.062500
297.550781	269628.937500
296.273438	269640.187500
294.995117	268773.156250
293.716797	268852.968750
292.437500	268572.968750
291.159180	266912.906250
289.879883	268052.343750
288.600586	266953.843750
287.321289	266387.156250
286.041016	266686.062500
284.761719	267016.062500
283.481445	265838.468750
282.200195	265506.656250
280.919922	264731.875000
279.638672	265214.156250
278.357422	264476.781250
277.076172	263880.125000
275.793945	263353.875000
274.511719	263061.843750
273.229492	262964.875000
271.947266	261807.515625
270.665039	262205.843750
269.381836	261165.937500
268.098633	261377.171875
266.814453	261263.015625
265.531250	260615.296875
264.247070	260990.031250
262.962891	261074.546875
261.678711	260292.890625
260.393555	260500.078125
259.108398	260152.687500
257.823242	258988.406250
256.538086	259199.578125
255.252930	258156.453125
253.966797	258196.593750
252.680664	258254.203125
251.393555	258669.359375
250.107422	259010.500000
248.820312	258440.406250
247.533203	258255.093750
246.246094	257217.343750
244.958008	257537.093750
243.669922	256468.796875
242.381836	256039.406250
241.093750	256103.031250
239.804688	256021.109375
238.516602	255320.468750
237.227539	256355.734375
235.937500	255213.187500
234.648438	254869.765625
233.358398	255107.890625
232.068359	253743.359375
230.778320	253264.734375
229.487305	253136.906250
228.196289	253491.343750
226.905273	253965.687500
225.614258	253055.609375
224.322266	252194.281250
223.030273	251468.718750
221.738281	251966.250000
220.446289	250749.640625
219.153320	250374.812500
217.860352	250201.218750
216.567383	249936.812500
215.274414	249175.718750
213.980469	247798.390625
212.686523	248311.343750
211.392578	247804.031250
210.098633	246499.187500
208.803711	246963.765625
207.508789	245756.093750
206.213867	244913.734375
204.918945	245000.015625
203.623047	244980.140625
202.327148	243991.734375
201.031250	243113.640625
199.735352	242085.453125
198.438477	243064.906250
197.141602	241628.390625
195.844727	241437.546875
194.547852	241106.109375
193.250000	240898.078125
191.952148	240595.734375
190.654297	239584.718750
189.355469	239213.390625
188.057617	238736.312500
186.758789	238682.859375
185.458984	238396.562500
184.160156	238164.234375
182.860352	237487.593750
181.560547	236701.578125
180.260742	238138.859375
178.960938	237349.140625
177.660156	237474.734375
176.359375	236814.187500
175.058594	236809.140625
173.756836	236973.140625
172.455078	236265.015625
171.153320	236156.343750
169.851562	235081.890625
168.548828	235862.281250
167.247070	235316.093750
165.944336	233766.468750
164.640625	233997.906250
163.337891	233882.046875
162.034180	232901.250000
160.730469	232992.703125
159.426758	232215.656250
158.122070	231634.390625
156.817383	230401.765625
155.512695	230347.968750
154.208008	229388.078125
152.902344	229022.265625
151.596680	228505.312500
150.291016	228183.843750
148.985352	227424.125000
147.678711	227772.796875
146.372070	227179.890625
145.065430	227710.203125
143.758789	226826.781250
142.451172	226494.453125
141.143555	226443.296875
139.835938	225812.937500
138.528320	225146.500000
137.219727	223801.921875
135.911133	222461.671875
134.602539	221034.078125
133.292969	218369.453125
131.984375	216290.140625
130.674805	213348.718750
129.364258	211219.609375
128.054688	208026.453125
126.744141	204109.500000
125.433594	200573.656250
124.123047	197140.234375
122.811523	192735.640625
121.500000	187699.765625
120.188477	182158.781250
