#Wave		#Intensity
1498.781250	218715.343750
1497.724609	218833.703125
1496.668945	219140.125000
1495.612305	218790.937500
1494.555664	218515.203125
1493.499023	218838.062500
1492.441406	218609.703125
1491.384766	218516.203125
1490.327148	218682.812500
1489.269531	218147.281250
1488.211914	217985.343750
1487.153320	218411.859375
1486.095703	217999.484375
1485.037109	218135.281250
1483.978516	217862.437500
1482.919922	218342.937500
1481.861328	217581.421875
1480.801758	217245.062500
1479.742188	215702.812500
1478.683594	217436.296875
1477.623047	217569.593750
1476.563477	216483.328125
1475.503906	216029.500000
1474.443359	217018.890625
1473.382812	216876.296875
1472.322266	215588.203125
1471.261719	217255.843750
1470.200195	216373.390625
1469.139648	215755.109375
1468.078125	216383.046875
1467.016602	216346.640625
1465.954102	215198.890625
1464.892578	216528.109375
1463.830078	215267.718750
1462.768555	215513.906250
1461.706055	215531.765625
1460.642578	215610.781250
1459.580078	216066.078125
1458.516602	215768.671875
1457.453125	215377.328125
1456.389648	215616.125000
1455.326172	215629.187500
1454.262695	214796.265625
1453.198242	214717.828125
1452.134766	215224.328125
1451.070312	215251.515625
1450.004883	214917.046875
1448.940430	215235.375000
1447.875000	214483.171875
1446.810547	214756.875000
1445.745117	214535.328125
1444.679688	213978.359375
1443.613281	214960.390625
1442.547852	215437.796875
1441.481445	213741.328125
1440.415039	214223.468750
1439.348633	214074.859375
1438.282227	214322.390625
1437.214844	213545.828125
1436.147461	213378.671875
1435.080078	213239.671875
1434.012695	213639.343750
1432.945312	213664.234375
1431.877930	213391.781250
1430.809570	214364.671875
1429.741211	213734.109375
1428.672852	212581.984375
1427.604492	213521.718750
1426.535156	212091.687500
1425.465820	213454.421875
1424.397461	212808.187500
1423.327148	213137.015625
1422.257812	213486.734375
1421.188477	212553.375000
1420.118164	212973.156250
1419.047852	213156.843750
1417.977539	211854.984375
1416.907227	211480.671875
1415.835938	212603.093750
1414.765625	212576.578125
1413.694336	212816.140625
1412.623047	212229.531250
1411.551758	213087.328125
1410.479492	212290.921875
1409.408203	211739.671875
1408.335938	211235.265625
1407.263672	212118.234375
1406.191406	212348.187500
1405.118164	211354.484375
1404.045898	211931.671875
1402.972656	211763.125000
1401.899414	211515.421875
1400.825195	211244.500000
1399.751953	211520.890625
1398.677734	210903.171875
1397.604492	211160.875000
1396.530273	210671.421875
1395.455078	211666.671875
1394.380859	210390.953125
1393.305664	210734.593750
1392.231445	210785.078125
1391.156250	210140.296875
1390.080078	210481.437500
1389.004883	210292.500000
1387.929688	211084.328125
1386.853516	209694.078125
1385.777344	209981.593750
1384.701172	210032.078125
1383.624023	209827.093750
1382.547852	209849.718750
1381.470703	209849.109375
1380.393555	209511.937500
1379.316406	209743.437500
1378.238281	209397.109375
1377.161133	209477.734375
1376.083008	209240.578125
1375.004883	209434.812500
1373.926758	209283.500000
1372.847656	210321.421875
1371.769531	209189.625000
1370.690430	209158.921875
1369.611328	208868.734375
1368.532227	208615.703125
1367.453125	208332.656250
1366.373047	208936.546875
1365.292969	209116.562500
1364.212891	208798.812500
1363.132812	208066.921875
1362.052734	207758.718750
1360.971680	208498.640625
1359.891602	208248.281250
1358.810547	208823.625000
1357.729492	208797.562500
1356.647461	208054.843750
1355.566406	208142.171875
1354.484375	207582.390625
1353.402344	207803.781250
1352.320312	207396.703125
1351.237305	208350.218750
1350.155273	207162.625000
1349.072266	208522.171875
1347.989258	207743.578125
1346.906250	207826.156250
1345.823242	207253.312500
1344.739258	207910.437500
1343.655273	207074.796875
1342.571289	207835.484375
1341.487305	207154.640625
1340.403320	206766.828125
1339.318359	207257.437500
1338.234375	207238.500000
1337.149414	206933.828125
1336.064453	207242.093750
1334.978516	207002.015625
1333.893555	207052.187500
1332.807617	207056.296875
1331.721680	207854.671875
1330.635742	206751.421875
1329.548828	206274.546875
1328.462891	206359.281250
1327.375977	207021.437500
1326.289062	207041.593750
1325.202148	206760.453125
1324.115234	206700.156250
1323.027344	205405.328125
1321.939453	205846.343750
1320.851562	206296.390625
1319.763672	205946.671875
1318.675781	206116.250000
1317.586914	206494.781250
1316.498047	206099.265625
1315.410156	206032.203125
1314.320312	205033.140625
1313.231445	205854.531250
1312.141602	205539.687500
1311.052734	205897.203125
1309.962891	204781.859375
1308.872070	204538.453125
1307.782227	205047.281250
1306.692383	204813.078125
1305.601562	203831.640625
1304.510742	204927.015625
1303.419922	204193.390625
1302.328125	205050.015625
1301.237305	204266.218750
1300.145508	204756.062500
1299.053711	204618.312500
1297.961914	204469.156250
1296.869141	204095.734375
1295.777344	204555.468750
1294.684570	203960.187500
1293.591797	203836.390625
1292.499023	204307.328125
1291.405273	202699.281250
1290.312500	203003.328125
1289.218750	204025.093750
1288.125000	203030.500000
1287.031250	202895.531250
1285.936523	202710.328125
1284.842773	203162.546875
1283.748047	202984.187500
1282.653320	201810.234375
1281.557617	201970.093750
1280.462891	202111.625000
1279.367188	202800.859375
1278.272461	201942.671875
1277.176758	201897.015625
1276.080078	201652.906250
1274.984375	202188.890625
1273.887695	201454.531250
1272.791016	201858.093750
1271.694336	201598.187500
1270.597656	201705.281250
1269.500977	201331.531250
1268.403320	200866.781250
1267.305664	201304.218750
1266.208008	200910.234375
1265.110352	200794.171875
1264.011719	200935.390625
1262.913086	200939.984375
1261.815430	200837.609375
1260.715820	200323.421875
1259.617188	199490.921875
1258.518555	200660.296875
1257.418945	200701.281250
1256.319336	200310.234375
1255.219727	199185.046875
1254.120117	198971.687500
1253.019531	199687.843750
1251.918945	199781.171875
1250.818359	199099.828125
1249.717773	199633.843750
1248.617188	198827.859375
1247.515625	198966.671875
1246.415039	199316.515625
1245.313477	198796.968750
1244.211914	199500.703125
1243.109375	198779.375000
1242.007812	199625.750000
1240.905273	198707.328125
1239.802734	199267.687500
1238.700195	198782.671875
1237.596680	197808.218750
1236.494141	198062.437500
1235.390625	198475.187500
1234.287109	198233.031250
1233.183594	197988.703125
1232.079102	197896.187500
1230.975586	197903.328125
1229.871094	197942.140625
1228.766602	197417.343750
1227.662109	197558.046875
1226.556641	198425.000000
1225.452148	197475.078125
1224.346680	197731.031250
1223.241211	197211.218750
1222.135742	198939.000000
1221.029297	197250.437500
1219.922852	196938.906250
1218.817383	196781.140625
1217.709961	197563.312500
1216.603516	197100.531250
1215.497070	197663.265625
1214.389648	197252.546875
1213.282227	197372.515625
1212.174805	197600.796875
1211.067383	197418.234375
1209.958984	198063.843750
1208.850586	197578.921875
1207.743164	196882.156250
1206.633789	197895.093750
1205.525391	197719.359375
1204.416992	197627.093750
1203.307617	197631.781250
1202.198242	197731.093750
1201.088867	197156.671875
1199.978516	196861.796875
1198.869141	197319.296875
1197.758789	196781.265625
1196.648438	197646.140625
1195.538086	197256.812500
1194.426758	197425.781250
1193.316406	196658.562500
1192.205078	197025.562500
1191.093750	197700.609375
1189.982422	196733.546875
1188.870117	197035.093750
1187.758789	196720.500000
1186.646484	196985.953125
1185.534180	197098.484375
1184.420898	196700.875000
1183.308594	196896.531250
1182.195312	196849.500000
1181.082031	196584.625000
1179.968750	196517.453125
1178.855469	196302.109375
1177.741211	196890.421875
1176.627930	196971.312500
1175.513672	196374.546875
1174.399414	196468.937500
1173.284180	196099.000000
1172.169922	196229.281250
1171.054688	196633.046875
1169.939453	195503.296875
1168.824219	195676.187500
1167.708008	195855.703125
1166.592773	194677.406250
1165.476562	195508.906250
1164.360352	195502.437500
1163.244141	195139.921875
1162.126953	195881.312500
1161.010742	194522.703125
1159.893555	195140.828125
1158.776367	195167.953125
1157.659180	194376.234375
1156.541016	194714.406250
1155.423828	194696.843750
1154.305664	194817.921875
1153.187500	194250.359375
1152.068359	194769.328125
1150.950195	193898.031250
1149.831055	193509.687500
1148.711914	193677.734375
1147.592773	193432.500000
1146.473633	193794.781250
1145.353516	192756.953125
1144.233398	193788.921875
1143.113281	193508.109375
1141.993164	193037.687500
1140.873047	193388.515625
1139.751953	192699.656250
1138.630859	192666.781250
1137.509766	193050.890625
1136.388672	193009.031250
1135.267578	192735.328125
1134.145508	192457.281250
1133.023438	191753.703125
1131.901367	192585.406250
1130.779297	192430.015625
1129.657227	192330.343750
1128.534180	191669.578125
1127.411133	191939.625000
1126.288086	191098.859375
1125.165039	191157.484375
1124.041016	191601.015625
1122.916992	191697.328125
1121.792969	191382.109375
1120.668945	190802.359375
1119.544922	191185.562500
1118.419922	191435.234375
1117.294922	191031.359375
1116.169922	190376.500000
1115.044922	190832.796875
1113.919922	189633.953125
1112.793945	191020.796875
1111.667969	190304.218750
1110.541992	190580.312500
1109.416016	190263.625000
1108.290039	190484.125000
1107.163086	190429.390625
1106.036133	189536.031250
1104.909180	190473.000000
1103.782227	189943.656250
1102.654297	190321.421875
1101.526367	190424.125000
1100.398438	189010.640625
1099.270508	189966.750000
1098.142578	189730.437500
1097.013672	189418.859375
1095.885742	189827.265625
1094.756836	189898.890625
1093.626953	189089.250000
1092.498047	189659.062500
1091.368164	189604.500000
1090.238281	189826.562500
1089.108398	189827.281250
1087.978516	189266.109375
1086.848633	190397.109375
1085.717773	189995.234375
1084.586914	189730.578125
1083.456055	188908.968750
1082.325195	189022.515625
1081.193359	189467.468750
1080.061523	188990.984375
1078.929688	188554.421875
1077.797852	188608.296875
1076.666016	189755.140625
1075.533203	189133.203125
1074.400391	188908.796875
1073.267578	188470.390625
1072.134766	188974.312500
1071.001953	188712.531250
1069.868164	189666.156250
1068.734375	189298.468750
1067.600586	188291.515625
1066.466797	188671.500000
1065.332031	188736.171875
1064.198242	188470.265625
1063.063477	188686.953125
1061.928711	188839.671875
1060.792969	188816.125000
1059.658203	188495.312500
1058.522461	188846.109375
1057.386719	188989.843750
1056.250977	188429.265625
1055.114258	188234.140625
1053.978516	188034.687500
1052.841797	188299.421875
1051.705078	188361.718750
1050.567383	187984.218750
1049.430664	188275.171875
1048.292969	187981.328125
1047.155273	187949.109375
1046.017578	187558.750000
1044.879883	187889.078125
1043.741211	188210.484375
1042.603516	187831.234375
1041.464844	188084.453125
1040.325195	187571.453125
1039.186523	188092.375000
1038.046875	187542.234375
1036.908203	187529.828125
1035.768555	187434.046875
1034.627930	186276.796875
1033.488281	186814.984375
1032.347656	187719.078125
1031.207031	186935.031250
1030.066406	186324.390625
1028.925781	186575.093750
1027.784180	186604.421875
1026.642578	186984.203125
1025.500977	187214.906250
1024.359375	185910.640625
1023.217773	186612.125000
1022.075195	186917.156250
1020.932617	186318.296875
1019.790039	186290.687500
1018.647461	186368.093750
1017.504883	185649.343750
1016.361328	186385.031250
1015.217773	186151.890625
1014.074219	185507.859375
1012.930664	186527.265625
1011.786133	185125.156250
1010.641602	186089.625000
1009.497070	185369.593750
1008.352539	185735.250000
1007.208008	185000.250000
1006.062500	185496.812500
1004.916992	185571.906250
1003.771484	184250.265625
1002.625977	185608.531250
1001.479492	184824.015625
1000.333984	184733.375000
999.187500	184878.281250
998.041016	185247.703125
996.893555	184838.750000
995.747070	184288.265625
994.599609	185082.500000
993.452148	184593.156250
992.304688	184896.906250
991.156250	184882.546875
990.008789	184365.187500
988.860352	184459.781250
987.711914	185146.390625
986.563477	184775.046875
985.414062	184403.843750
984.264648	184143.703125
983.115234	184710.218750
981.965820	184363.109375
980.816406	183879.156250
979.666016	184934.500000
978.515625	184081.093750
977.365234	184032.062500
976.214844	183759.234375
975.064453	184066.515625
973.913086	184278.109375
972.761719	183727.406250
971.610352	184985.468750
970.458984	183764.062500
969.306641	183754.156250
968.154297	184089.250000
967.001953	183601.968750
965.849609	184077.953125
964.697266	184130.859375
963.543945	184125.171875
962.390625	183449.609375
961.237305	184011.937500
960.083984	183247.765625
958.930664	183710.234375
957.776367	183513.968750
956.622070	182839.078125
955.467773	183366.312500
954.312500	183261.125000
953.158203	183216.578125
952.002930	183972.859375
950.847656	183504.046875
949.692383	183509.218750
948.536133	183280.750000
947.380859	183733.640625
946.224609	183334.375000
945.068359	183196.859375
943.911133	182516.812500
942.754883	182803.062500
941.597656	183236.140625
940.440430	183919.640625
939.283203	183354.421875
938.125000	183361.687500
936.967773	182578.687500
935.809570	182668.109375
934.651367	182550.281250
933.493164	182574.921875
932.333984	182703.109375
931.174805	181219.812500
930.015625	182838.531250
928.856445	182242.031250
927.697266	182497.343750
926.537109	181855.843750
925.377930	181503.359375
924.216797	182084.031250
923.056641	181968.609375
921.896484	181607.656250
920.735352	181124.078125
919.574219	181219.875000
918.413086	180504.015625
917.251953	181340.328125
916.089844	180611.781250
914.927734	181008.812500
913.765625	181181.953125
912.603516	180821.609375
911.441406	180229.156250
910.278320	180552.828125
909.115234	180467.921875
907.952148	180080.015625
906.789062	180753.765625
905.625000	179826.671875
904.460938	179782.750000
903.296875	179281.390625
902.132812	180006.296875
900.968750	180380.984375
899.803711	179139.234375
898.638672	179417.359375
897.473633	179227.609375
896.308594	179359.718750
895.142578	178985.578125
893.977539	178961.109375
892.811523	178928.078125
891.644531	178412.718750
890.478516	178587.671875
889.311523	178861.140625
888.144531	178277.484375
886.977539	178790.812500
885.810547	179128.312500
884.643555	179219.437500
883.475586	178730.312500
882.307617	177952.390625
881.139648	178294.046875
879.970703	178853.828125
878.802734	177577.812500
877.633789	178421.984375
876.464844	178277.812500
875.295898	178672.500000
874.125977	178025.953125
872.956055	178253.812500
871.786133	177846.890625
870.616211	178153.750000
869.446289	178481.843750
868.275391	178754.265625
867.104492	177984.515625
865.933594	178284.671875
864.762695	177944.328125
863.591797	178310.531250
862.419922	178759.812500
861.248047	178347.000000
860.076172	177919.406250
858.903320	178023.000000
857.731445	178646.812500
856.558594	178121.296875
855.385742	178233.296875
854.212891	177780.515625
853.039062	178674.468750
851.865234	178000.203125
850.691406	178410.281250
849.517578	178053.593750
848.343750	177592.687500
847.168945	177947.250000
845.994141	178367.656250
844.819336	178577.234375
843.644531	177725.078125
842.469727	177879.375000
841.293945	178118.671875
840.118164	178389.765625
838.942383	178801.062500
837.765625	177975.140625
836.589844	178182.328125
835.413086	178064.343750
834.236328	177644.734375
833.059570	178304.250000
831.881836	178804.265625
830.704102	177847.546875
829.526367	177396.421875
828.348633	178649.734375
827.170898	178671.828125
825.992188	177917.375000
824.813477	178268.359375
823.634766	177957.500000
822.456055	178238.343750
821.276367	177456.937500
820.097656	178057.843750
818.917969	178122.328125
817.738281	178053.296875
816.557617	177658.031250
815.377930	177760.656250
814.197266	177448.171875
813.016602	177546.546875
811.834961	177293.484375
810.654297	177554.796875
809.472656	178239.250000
808.291016	177960.781250
807.109375	178465.078125
805.926758	177937.078125
804.745117	177312.000000
803.562500	177613.156250
802.379883	177711.265625
801.196289	177428.921875
800.013672	177767.890625
798.830078	177181.421875
797.646484	178077.906250
796.462891	177143.125000
795.278320	176694.312500
794.094727	176779.734375
792.910156	176806.031250
791.725586	176450.343750
790.540039	177073.765625
789.355469	177085.203125
788.169922	176231.906250
786.984375	176532.359375
785.798828	176841.125000
784.612305	176338.234375
783.425781	176587.906250
782.240234	176078.906250
781.052734	175241.437500
779.866211	177506.906250
778.678711	175559.640625
777.492188	176493.484375
776.303711	176102.828125
775.116211	176337.421875
773.928711	175717.546875
772.740234	176227.734375
771.551758	175770.062500
770.363281	175691.140625
769.173828	175534.421875
767.985352	175577.500000
766.795898	175067.703125
765.606445	175089.812500
764.416016	175198.046875
763.226562	175968.015625
762.036133	175403.890625
760.845703	175446.890625
759.655273	175267.296875
758.463867	175056.265625
757.273438	175397.328125
756.082031	175215.718750
754.890625	175296.437500
753.698242	175905.750000
752.506836	175260.609375
751.314453	174793.953125
750.122070	174874.656250
748.929688	174326.468750
747.736328	175293.734375
746.542969	174190.375000
745.349609	174920.546875
744.156250	174540.296875
742.962891	174560.171875
741.768555	174324.593750
740.574219	174388.453125
739.379883	174222.046875
738.185547	174513.984375
736.990234	173832.890625
735.795898	173700.125000
734.600586	173931.328125
733.404297	173627.093750
732.208984	173952.281250
731.012695	173959.625000
729.816406	173502.968750
728.620117	173685.890625
727.423828	173799.781250
726.226562	174126.687500
725.029297	173557.546875
723.832031	174339.531250
722.634766	174058.640625
721.437500	173842.546875
720.239258	173659.906250
719.041016	173030.828125
717.842773	173860.125000
716.643555	174180.218750
715.445312	173215.640625
714.246094	173177.109375
713.046875	173488.781250
711.846680	173450.187500
710.647461	173065.718750
709.447266	173866.796875
708.247070	173857.296875
707.046875	173910.265625
705.845703	173694.609375
704.644531	173023.125000
703.443359	173365.515625
702.242188	174107.328125
701.041016	173442.343750
699.838867	173353.843750
698.636719	173639.718750
697.434570	173052.125000
696.232422	173001.125000
695.029297	173054.093750
693.827148	173267.046875
692.624023	173259.656250
691.419922	172909.468750
690.216797	173141.000000
689.012695	172959.171875
687.808594	173198.890625
686.604492	172985.968750
685.400391	172825.000000
684.195312	173116.468750
682.990234	172976.265625
681.785156	173452.203125
680.580078	173187.531250
679.374023	172974.796875
678.168945	173131.171875
676.962891	173032.515625
675.755859	172411.625000
674.549805	173413.390625
673.342773	172941.812500
672.135742	172196.984375
670.928711	172815.093750
669.721680	173143.078125
668.513672	172812.640625
667.305664	172159.421875
666.097656	172895.000000
664.889648	172378.562500
663.680664	172429.093750
662.471680	172001.843750
661.262695	172075.156250
660.053711	171827.984375
658.844727	172488.343750
657.634766	172319.703125
656.424805	172177.984375
655.214844	171736.750000
654.004883	171774.875000
652.793945	171315.265625
651.583008	171723.031250
650.372070	171195.484375
649.161133	171598.968750
647.949219	170611.437500
646.737305	171662.718750
645.525391	170956.062500
644.313477	171126.203125
643.101562	171259.156250
641.888672	170934.375000
640.675781	170067.578125
639.462891	169691.593750
638.249023	170374.843750
637.036133	169689.906250
635.822266	170331.687500
634.608398	169869.406250
633.393555	169767.609375
632.179688	169980.812500
630.964844	170128.062500
629.750000	169612.625000
628.535156	169803.078125
627.319336	169929.687500
626.103516	170309.203125
624.887695	169374.609375
623.671875	169967.890625
622.456055	169013.140625
621.239258	169655.562500
620.022461	169496.406250
618.805664	169166.781250
617.588867	170110.718750
616.371094	168830.296875
615.153320	169406.406250
613.935547	169048.281250
612.717773	169189.000000
611.499023	169547.187500
610.280273	168655.781250
609.061523	168540.078125
607.842773	168522.859375
606.624023	169075.656250
605.404297	168957.875000
604.184570	167854.187500
602.964844	168837.156250
601.744141	168719.453125
600.524414	168655.046875
599.303711	168428.843750
598.083008	168358.359375
596.861328	167960.296875
595.640625	168217.437500
594.418945	168777.375000
593.197266	168340.562500
591.975586	168012.328125
590.752930	167884.687500
589.530273	168493.312500
588.307617	169054.671875
587.084961	167874.031250
585.862305	167932.484375
584.638672	169029.031250
583.415039	168302.625000
582.191406	169092.250000
580.967773	168537.656250
579.743164	167760.687500
578.518555	168100.781250
577.293945	168273.359375
576.069336	167625.421875
574.843750	167689.843750
573.618164	167684.890625
572.392578	168677.359375
571.166992	168286.765625
569.940430	168934.156250
568.714844	168205.218750
567.488281	167364.468750
566.260742	167673.343750
565.034180	167275.109375
563.806641	167484.062500
562.579102	167770.328125
561.351562	168164.406250
560.124023	167866.109375
558.895508	167775.531250
557.666992	167129.390625
556.438477	167236.359375
555.209961	167746.078125
553.980469	166852.125000
552.750977	167634.218750
551.521484	166880.906250
550.291992	166845.484375
549.061523	166627.125000
547.831055	167272.484375
546.600586	166800.156250
545.370117	166819.578125
544.139648	166300.781250
542.908203	166033.968750
541.676758	165645.437500
540.445312	165981.671875
539.212891	165388.312500
537.981445	165580.390625
536.749023	164979.187500
535.516602	165134.765625
534.283203	165440.328125
533.050781	165139.546875
531.817383	164597.625000
530.583984	163936.343750
529.349609	164401.953125
528.116211	164790.390625
526.881836	163558.187500
525.647461	164317.250000
524.413086	163650.515625
523.177734	163350.453125
521.942383	163777.156250
520.707031	163867.750000
519.471680	163252.156250
518.236328	163298.281250
517.000000	162901.453125
515.763672	163038.609375
514.527344	162852.234375
513.290039	161897.765625
512.053711	162619.109375
510.816406	162077.250000
509.578125	162386.125000
508.340820	162771.640625
507.102539	162052.312500
505.865234	162039.953125
504.625977	162812.890625
503.387695	162247.343750
502.149414	162085.593750
500.910156	162172.062500
499.670898	162117.296875
498.430664	161745.890625
497.191406	161122.562500
495.951172	162098.218750
494.710938	161690.718750
493.470703	176668.453125
492.229492	168780.843750
490.989258	162461.515625
489.748047	161655.421875
488.505859	161093.296875
487.264648	162093.781250
486.022461	161000.328125
484.780273	161819.312500
483.538086	161929.640625
482.295898	161285.453125
481.052734	161705.625000
479.809570	161900.359375
478.566406	161262.562500
477.323242	161632.203125
476.079102	161527.328125
474.834961	162125.859375
473.590820	161621.078125
472.346680	161586.546875
471.101562	161955.750000
469.856445	160750.421875
468.611328	161067.421875
467.366211	161643.234375
466.120117	161108.953125
464.875000	161018.343750
463.628906	160945.812500
462.381836	161898.281250
461.135742	160626.312500
459.888672	160437.578125
458.641602	160734.046875
457.394531	161156.656250
456.146484	160523.031250
454.899414	160324.406250
453.651367	160536.500000
452.402344	159697.031250
451.154297	159867.093750
449.905273	159932.984375
448.656250	159758.640625
447.407227	159198.109375
446.158203	159418.125000
444.908203	159894.140625
443.658203	159245.859375
442.408203	158821.796875
441.158203	159857.453125
439.907227	158032.093750
438.656250	158399.953125
437.405273	158501.890625
436.154297	158094.312500
434.902344	157409.218750
433.650391	157587.156250
432.398438	157625.234375
431.146484	157437.703125
429.894531	156880.984375
428.641602	156845.312500
427.388672	156875.500000
426.134766	156193.484375
424.881836	156463.109375
423.627930	157237.140625
422.374023	156521.531250
421.120117	156398.218750
419.865234	156472.265625
418.611328	155729.281250
417.356445	155161.906250
416.100586	155646.421875
414.845703	155642.859375
413.589844	155187.281250
412.333984	155627.718750
411.078125	155373.343750
409.822266	154874.281250
408.565430	154860.875000
407.308594	154712.187500
406.051758	154995.125000
404.793945	154245.953125
403.537109	154435.421875
402.279297	154795.750000
401.021484	154806.171875
399.762695	154456.937500
398.504883	154679.968750
397.246094	154724.156250
395.987305	154655.109375
394.727539	154796.562500
393.468750	154741.406250
392.208984	153896.359375
390.949219	154891.109375
389.688477	154617.718750
388.428711	154473.359375
387.167969	154231.875000
385.907227	153617.687500
384.646484	153780.859375
383.384766	154144.156250
382.123047	154475.593750
380.861328	154392.796875
379.599609	154135.703125
378.336914	153908.406250
377.074219	153526.750000
375.811523	153568.890625
374.548828	153260.656250
373.286133	153217.718750
372.022461	153754.562500
370.758789	152850.968750
369.494141	153377.765625
368.230469	153075.750000
366.965820	153040.765625
365.701172	153082.875000
364.436523	153538.046875
363.170898	153445.671875
361.906250	153495.562500
360.640625	154070.875000
359.374023	154436.609375
358.108398	155499.218750
356.841797	155483.515625
355.575195	156434.968750
354.308594	158566.187500
353.041992	158772.828125
351.774414	159121.437500
350.506836	158866.359375
349.239258	160551.781250
347.970703	161240.890625
346.702148	163601.312500
345.434570	164555.640625
344.165039	165614.031250
342.896484	165958.843750
341.626953	162998.359375
340.357422	159855.859375
339.087891	157189.046875
337.818359	155377.609375
336.547852	153745.953125
335.277344	152437.640625
334.006836	150968.484375
332.735352	150469.640625
331.464844	150405.640625
330.193359	150091.921875
328.921875	149314.343750
327.649414	149439.265625
326.377930	149074.781250
325.105469	149840.218750
323.833008	148562.328125
322.559570	148555.671875
321.286133	148389.937500
320.013672	148762.234375
318.739258	148525.859375
317.465820	147991.234375
316.191406	147953.265625
314.916992	148682.375000
313.642578	147449.734375
312.368164	147717.796875
311.092773	147558.312500
309.817383	147198.921875
308.541992	147721.656250
307.266602	146995.906250
305.990234	147583.125000
304.713867	146630.437500
303.437500	147329.109375
302.161133	147414.625000
300.883789	147122.250000
299.606445	146967.000000
298.329102	147183.625000
297.051758	146993.187500
295.773438	147121.687500
294.495117	147561.109375
293.216797	147980.812500
291.938477	148326.046875
290.659180	149001.500000
289.379883	149053.234375
288.100586	148743.437500
286.821289	148943.671875
285.541016	148573.453125
284.260742	149021.640625
282.980469	148825.312500
281.700195	148695.437500
280.418945	147010.015625
279.137695	147302.015625
277.856445	146226.218750
276.575195	146479.234375
275.292969	145579.515625
274.010742	145772.093750
272.728516	145847.609375
271.446289	146693.031250
270.163086	146857.968750
268.879883	147831.453125
267.596680	148409.093750
266.313477	150020.734375
265.029297	152391.203125
263.745117	154959.343750
262.460938	159488.640625
261.176758	164950.390625
259.891602	173103.078125
258.606445	185065.734375
257.321289	197766.843750
256.036133	209274.875000
254.750000	216683.703125
253.463867	214241.531250
252.177734	204134.703125
250.891602	191472.484375
249.604492	179903.093750
248.317383	169882.390625
247.030273	162970.968750
245.743164	157394.203125
244.455078	153902.656250
243.166992	150666.718750
241.878906	148229.609375
240.590820	145774.015625
239.301758	143955.640625
238.012695	142985.515625
236.723633	142101.093750
235.433594	141199.546875
234.144531	140123.875000
232.854492	139693.984375
231.564453	138599.625000
230.273438	138699.046875
228.982422	137212.093750
227.692383	136928.296875
226.400391	136993.109375
225.109375	135968.031250
223.817383	135285.921875
222.525391	135803.796875
221.233398	134655.703125
219.941406	135210.234375
218.648438	134675.750000
217.355469	133892.015625
216.062500	134121.578125
214.768555	133494.796875
213.475586	133581.343750
212.181641	133101.734375
210.886719	132631.968750
209.592773	132291.765625
208.297852	131416.812500
207.002930	131300.906250
205.708008	131603.921875
204.412109	131057.656250
203.117188	130473.007812
201.821289	130336.132812
200.524414	129979.429688
199.228516	129651.773438
197.931641	129146.867188
196.634766	129444.054688
195.337891	128478.734375
194.040039	128839.515625
192.743164	128654.929688
191.445312	128574.429688
190.146484	127877.679688
188.848633	128088.085938
187.549805	127574.570312
186.250977	126834.125000
184.952148	127110.023438
183.652344	127027.945312
182.352539	126570.781250
181.052734	126438.820312
179.752930	125695.421875
178.452148	125986.625000
177.151367	125658.773438
175.850586	126070.929688
174.549805	126148.593750
173.248047	125669.117188
171.946289	125462.554688
170.644531	126110.601562
169.342773	126347.531250
168.040039	125518.992188
166.737305	125063.101562
165.434570	125217.562500
164.131836	125266.445312
162.828125	124987.304688
161.524414	124027.468750
160.220703	124534.781250
158.916992	123977.960938
157.612305	123317.851562
156.307617	122767.210938
155.002930	122634.445312
153.698242	122057.320312
152.392578	122635.250000
151.086914	122263.218750
149.781250	121720.937500
148.474609	121576.984375
147.167969	121149.851562
145.861328	121888.085938
144.554688	121223.843750
143.248047	121124.062500
141.940430	121060.640625
140.632812	120840.468750
139.325195	119876.804688
138.016602	120558.984375
136.708008	119225.046875
135.399414	118990.085938
134.090820	118892.734375
132.781250	118098.390625
131.472656	116691.468750
130.163086	115349.984375
128.852539	114176.960938
127.542969	111991.140625
126.232422	111090.109375
124.921875	109123.156250
123.610352	107315.250000
122.299805	105553.781250
120.988281	103383.132812
119.676758	100675.820312
