#Wave		#Intensity
1498.781250	42736.039062
1497.724609	42781.015625
1496.668945	42771.000000
1495.612305	42668.695312
1494.555664	42299.066406
1493.499023	42674.722656
1492.441406	42950.906250
1491.384766	42330.761719
1490.327148	42710.933594
1489.269531	42147.781250
1488.211914	42357.679688
1487.153320	42550.957031
1486.095703	41950.328125
1485.037109	42292.425781
1483.978516	42523.394531
1482.919922	42352.851562
1481.861328	42387.769531
1480.801758	42417.949219
1479.742188	42261.675781
1478.683594	42324.898438
1477.623047	42145.097656
1476.563477	42413.531250
1475.503906	42318.679688
1474.443359	42388.914062
1473.382812	42279.953125
1472.322266	42435.023438
1471.261719	42040.925781
1470.200195	42405.687500
1469.139648	42259.097656
1468.078125	42206.777344
1467.016602	42399.390625
1465.954102	42231.687500
1464.892578	42047.558594
1463.830078	42070.625000
1462.768555	42321.953125
1461.706055	42302.605469
1460.642578	41892.753906
1459.580078	42026.371094
1458.516602	41950.644531
1457.453125	42253.484375
1456.389648	42137.777344
1455.326172	42353.511719
1454.262695	41920.578125
1453.198242	42054.035156
1452.134766	42159.253906
1451.070312	41984.941406
1450.004883	41615.785156
1448.940430	42103.714844
1447.875000	42363.773438
1446.810547	42025.250000
1445.745117	41773.671875
1444.679688	41822.488281
1443.613281	41669.554688
1442.547852	42314.078125
1441.481445	41678.058594
1440.415039	41914.406250
1439.348633	41822.503906
1438.282227	42077.488281
1437.214844	41777.039062
1436.147461	41919.480469
1435.080078	41829.980469
1434.012695	41937.230469
1432.945312	42313.714844
1431.877930	41842.582031
1430.809570	41961.472656
1429.741211	41799.484375
1428.672852	41953.429688
1427.604492	42023.101562
1426.535156	41564.132812
1425.465820	41961.246094
1424.397461	41502.449219
1423.327148	41929.816406
1422.257812	41387.042969
1421.188477	41676.398438
1420.118164	41722.656250
1419.047852	41497.910156
1417.977539	41649.281250
1416.907227	42048.132812
1415.835938	41851.460938
1414.765625	41610.507812
1413.694336	41969.464844
1412.623047	41588.558594
1411.551758	41758.406250
1410.479492	41666.925781
1409.408203	41764.394531
1408.335938	42169.632812
1407.263672	41758.714844
1406.191406	41522.769531
1405.118164	41412.761719
1404.045898	41652.320312
1402.972656	41598.242188
1401.899414	41583.777344
1400.825195	41795.222656
1399.751953	41445.417969
1398.677734	41947.824219
1397.604492	41367.671875
1396.530273	41772.160156
1395.455078	41424.929688
1394.380859	41398.871094
1393.305664	41751.960938
1392.231445	41565.382812
1391.156250	41246.335938
1390.080078	41438.847656
1389.004883	42005.507812
1387.929688	41442.535156
1386.853516	41386.285156
1385.777344	41025.734375
1384.701172	41789.480469
1383.624023	41463.812500
1382.547852	41444.746094
1381.470703	41321.218750
1380.393555	41504.105469
1379.316406	41466.468750
1378.238281	41489.167969
1377.161133	41307.722656
1376.083008	41488.156250
1375.004883	41608.226562
1373.926758	41116.171875
1372.847656	41254.812500
1371.769531	41474.515625
1370.690430	41494.859375
1369.611328	41501.289062
1368.532227	41477.601562
1367.453125	41254.746094
1366.373047	41335.312500
1365.292969	41302.402344
1364.212891	41440.792969
1363.132812	41289.839844
1362.052734	40979.285156
1360.971680	41351.316406
1359.891602	41262.910156
1358.810547	41169.910156
1357.729492	40938.207031
1356.647461	41011.746094
1355.566406	41154.597656
1354.484375	41512.320312
1353.402344	41109.730469
1352.320312	41162.386719
1351.237305	41069.511719
1350.155273	41156.792969
1349.072266	40943.882812
1347.989258	40978.054688
1346.906250	41333.039062
1345.823242	41334.816406
1344.739258	41022.808594
1343.655273	41193.042969
1342.571289	40931.910156
1341.487305	41258.898438
1340.403320	40997.847656
1339.318359	41250.937500
1338.234375	41284.984375
1337.149414	40943.410156
1336.064453	41230.929688
1334.978516	40850.324219
1333.893555	41248.300781
1332.807617	41256.980469
1331.721680	40726.925781
1330.635742	40807.050781
1329.548828	40866.429688
1328.462891	40905.078125
1327.375977	41350.914062
1326.289062	40655.699219
1325.202148	41250.902344
1324.115234	40760.593750
1323.027344	41100.375000
1321.939453	41063.078125
1320.851562	40867.222656
1319.763672	40965.539062
1318.675781	40928.281250
1317.586914	40900.222656
1316.498047	40704.527344
1315.410156	41078.320312
1314.320312	40797.726562
1313.231445	41148.410156
1312.141602	40661.371094
1311.052734	40681.562500
1309.962891	40983.898438
1308.872070	41107.230469
1307.782227	40531.109375
1306.692383	41117.601562
1305.601562	40761.746094
1304.510742	40493.105469
1303.419922	40877.632812
1302.328125	40938.980469
1301.237305	40922.421875
1300.145508	40534.847656
1299.053711	40612.246094
1297.961914	40723.957031
1296.869141	40604.437500
1295.777344	40473.515625
1294.684570	40722.476562
1293.591797	40118.011719
1292.499023	40703.183594
1291.405273	40473.992188
1290.312500	40384.363281
1289.218750	40525.656250
1288.125000	40534.332031
1287.031250	40186.496094
1285.936523	40286.617188
1284.842773	40624.285156
1283.748047	40399.953125
1282.653320	40591.324219
1281.557617	40325.980469
1280.462891	40476.199219
1279.367188	40478.007812
1278.272461	40358.867188
1277.176758	40456.519531
1276.080078	40348.832031
1274.984375	39896.789062
1273.887695	39741.347656
1272.791016	40142.261719
1271.694336	40324.195312
1270.597656	40152.804688
1269.500977	40708.367188
1268.403320	40557.472656
1267.305664	40304.125000
1266.208008	39834.511719
1265.110352	39815.914062
1264.011719	40045.472656
1262.913086	40186.175781
1261.815430	39521.199219
1260.715820	40114.742188
1259.617188	40214.402344
1258.518555	39718.093750
1257.418945	39833.703125
1256.319336	39771.921875
1255.219727	39819.277344
1254.120117	39941.621094
1253.019531	40179.816406
1251.918945	39727.210938
1250.818359	39815.421875
1249.717773	39908.144531
1248.617188	39839.601562
1247.515625	39959.527344
1246.415039	39679.886719
1245.313477	39849.726562
1244.211914	40098.921875
1243.109375	39622.019531
1242.007812	39884.773438
1240.905273	39362.718750
1239.802734	39979.160156
1238.700195	39749.734375
1237.596680	39774.261719
1236.494141	39723.992188
1235.390625	39886.730469
1234.287109	39820.597656
1233.183594	39720.507812
1232.079102	39998.656250
1230.975586	39481.941406
1229.871094	39796.250000
1228.766602	39908.996094
1227.662109	39836.128906
1226.556641	39677.308594
1225.452148	39713.093750
1224.346680	39796.359375
1223.241211	39802.710938
1222.135742	39836.187500
1221.029297	39709.148438
1219.922852	39627.359375
1218.817383	39739.933594
1217.709961	39619.753906
1216.603516	39806.832031
1215.497070	39788.316406
1214.389648	39934.648438
1213.282227	39789.679688
1212.174805	39714.738281
1211.067383	39763.949219
1209.958984	39686.781250
1208.850586	39814.937500
1207.743164	39663.347656
1206.633789	39845.585938
1205.525391	39993.937500
1204.416992	39646.253906
1203.307617	40116.906250
1202.198242	39643.125000
1201.088867	39548.050781
1199.978516	39507.074219
1198.869141	39508.910156
1197.758789	40091.746094
1196.648438	39848.050781
1195.538086	40016.398438
1194.426758	39770.550781
1193.316406	39756.574219
1192.205078	39839.347656
1191.093750	39535.171875
1189.982422	40124.000000
1188.870117	39997.527344
1187.758789	39434.929688
1186.646484	39663.789062
1185.534180	39991.453125
1184.420898	39981.937500
1183.308594	39925.242188
1182.195312	39560.828125
1181.082031	39405.410156
1179.968750	39366.812500
1178.855469	39745.796875
1177.741211	39743.058594
1176.627930	39482.234375
1175.513672	39757.773438
1174.399414	39795.410156
1173.284180	39752.285156
1172.169922	39657.593750
1171.054688	39558.449219
1169.939453	39528.835938
1168.824219	39322.164062
1167.708008	39176.070312
1166.592773	39449.011719
1165.476562	39547.117188
1164.360352	39371.941406
1163.244141	39241.613281
1162.126953	39424.781250
1161.010742	39307.917969
1159.893555	39361.191406
1158.776367	39199.628906
1157.659180	39297.644531
1156.541016	39250.226562
1155.423828	39500.273438
1154.305664	39522.148438
1153.187500	39248.910156
1152.068359	39011.535156
1150.950195	39726.281250
1149.831055	39082.234375
1148.711914	39345.433594
1147.592773	39510.253906
1146.473633	39083.218750
1145.353516	39024.742188
1144.233398	39283.289062
1143.113281	39006.062500
1141.993164	39309.144531
1140.873047	38953.921875
1139.751953	38931.207031
1138.630859	39303.273438
1137.509766	39169.003906
1136.388672	39277.800781
1135.267578	38824.816406
1134.145508	38799.910156
1133.023438	38884.199219
1131.901367	38402.566406
1130.779297	38787.605469
1129.657227	38976.519531
1128.534180	38866.984375
1127.411133	38822.050781
1126.288086	38752.648438
1125.165039	38743.355469
1124.041016	38560.511719
1122.916992	38949.468750
1121.792969	38855.621094
1120.668945	38610.582031
1119.544922	38879.246094
1118.419922	38921.058594
1117.294922	38391.640625
1116.169922	38717.972656
1115.044922	38639.808594
1113.919922	38965.972656
1112.793945	38956.640625
1111.667969	38727.468750
1110.541992	38505.042969
1109.416016	38711.117188
1108.290039	38473.234375
1107.163086	38552.753906
1106.036133	38723.203125
1104.909180	38882.496094
1103.782227	38609.265625
1102.654297	38890.476562
1101.526367	38748.140625
1100.398438	38809.777344
1099.270508	38683.019531
1098.142578	38755.722656
1097.013672	38626.800781
1095.885742	38318.515625
1094.756836	38858.507812
1093.626953	38705.277344
1092.498047	38642.863281
1091.368164	38618.097656
1090.238281	38487.117188
1089.108398	38774.351562
1087.978516	38610.207031
1086.848633	38682.773438
1085.717773	38958.753906
1084.586914	38887.515625
1083.456055	38643.886719
1082.325195	38552.839844
1081.193359	38726.988281
1080.061523	38677.933594
1078.929688	38458.812500
1077.797852	38705.757812
1076.666016	38502.160156
1075.533203	38406.816406
1074.400391	38775.027344
1073.267578	38406.011719
1072.134766	38414.433594
1071.001953	38797.882812
1069.868164	38764.320312
1068.734375	38497.011719
1067.600586	38408.390625
1066.466797	38685.738281
1065.332031	38782.250000
1064.198242	38413.757812
1063.063477	38547.738281
1061.928711	38597.960938
1060.792969	38123.984375
1059.658203	38442.906250
1058.522461	38722.082031
1057.386719	38494.875000
1056.250977	38789.339844
1055.114258	38232.140625
1053.978516	38742.144531
1052.841797	38594.277344
1051.705078	38697.171875
1050.567383	38742.859375
1049.430664	38784.128906
1048.292969	38772.632812
1047.155273	38686.421875
1046.017578	38448.632812
1044.879883	38402.050781
1043.741211	38313.750000
1042.603516	38616.367188
1041.464844	38418.277344
1040.325195	38202.699219
1039.186523	38566.617188
1038.046875	38315.976562
1036.908203	38442.792969
1035.768555	38569.554688
1034.627930	38253.253906
1033.488281	38184.843750
1032.347656	38603.167969
1031.207031	38438.273438
1030.066406	38341.375000
1028.925781	38349.683594
1027.784180	38423.714844
1026.642578	38421.050781
1025.500977	38392.109375
1024.359375	38439.808594
1023.217773	38141.605469
1022.075195	38473.867188
1020.932617	38101.359375
1019.790039	38400.687500
1018.647461	37986.761719
1017.504883	38375.667969
1016.361328	37876.613281
1015.217773	38156.074219
1014.074219	38256.187500
1012.930664	37951.937500
1011.786133	38078.269531
1010.641602	38527.894531
1009.497070	38239.046875
1008.352539	38334.675781
1007.208008	38076.535156
1006.062500	38311.875000
1004.916992	38239.363281
1003.771484	38267.261719
1002.625977	38116.230469
1001.479492	38102.691406
1000.333984	38403.238281
999.187500	38106.148438
998.041016	38022.843750
996.893555	37871.988281
995.747070	37891.187500
994.599609	38104.324219
993.452148	38909.996094
992.304688	38229.746094
991.156250	38133.429688
990.008789	38246.187500
988.860352	38008.390625
987.711914	38073.238281
986.563477	38209.882812
985.414062	38255.085938
984.264648	38372.066406
983.115234	38186.656250
981.965820	38162.242188
980.816406	38035.640625
979.666016	38148.218750
978.515625	38447.675781
977.365234	38060.312500
976.214844	38046.796875
975.064453	38217.937500
973.913086	38217.425781
972.761719	38240.804688
971.610352	38205.550781
970.458984	38187.671875
969.306641	38438.921875
968.154297	38381.945312
967.001953	38019.082031
965.849609	38261.542969
964.697266	38423.667969
963.543945	38054.488281
962.390625	38153.718750
961.237305	38255.078125
960.083984	38163.523438
958.930664	38195.503906
957.776367	38275.132812
956.622070	38008.175781
955.467773	38183.089844
954.312500	38143.585938
953.158203	38043.484375
952.002930	38387.109375
950.847656	38518.539062
949.692383	38128.496094
948.536133	38095.523438
947.380859	38077.695312
946.224609	38057.710938
945.068359	38208.531250
943.911133	37931.300781
942.754883	37952.410156
941.597656	38258.734375
940.440430	37906.031250
939.283203	38112.886719
938.125000	38000.050781
936.967773	37919.640625
935.809570	37981.738281
934.651367	38188.421875
933.493164	38090.750000
932.333984	37962.910156
931.174805	37942.972656
930.015625	38009.312500
928.856445	37881.550781
927.697266	37848.699219
926.537109	37755.500000
925.377930	37955.445312
924.216797	37922.589844
923.056641	38118.117188
921.896484	37641.515625
920.735352	37701.339844
919.574219	37914.019531
918.413086	37668.066406
917.251953	37889.277344
916.089844	37456.187500
914.927734	37701.023438
913.765625	37801.636719
912.603516	37454.832031
911.441406	37991.988281
910.278320	37410.917969
909.115234	38010.218750
907.952148	37655.027344
906.789062	37933.882812
905.625000	37679.808594
904.460938	37466.644531
903.296875	37960.140625
902.132812	37300.363281
900.968750	37718.562500
899.803711	37400.363281
898.638672	37268.988281
897.473633	37624.730469
896.308594	37429.000000
895.142578	37728.812500
893.977539	37507.398438
892.811523	37687.011719
891.644531	37499.984375
890.478516	37261.582031
889.311523	37434.707031
888.144531	37543.492188
886.977539	37183.109375
885.810547	37902.289062
884.643555	37222.910156
883.475586	37449.398438
882.307617	37463.886719
881.139648	37367.078125
879.970703	37428.648438
878.802734	37654.925781
877.633789	37256.539062
876.464844	37523.390625
875.295898	37415.964844
874.125977	37325.675781
872.956055	37156.339844
871.786133	37566.183594
870.616211	37569.925781
869.446289	37409.175781
868.275391	37543.222656
867.104492	37435.917969
865.933594	37751.386719
864.762695	37703.851562
863.591797	37532.542969
862.419922	37327.156250
861.248047	37202.917969
860.076172	37462.667969
858.903320	37349.105469
857.731445	37485.062500
856.558594	37085.863281
855.385742	37381.675781
854.212891	37613.441406
853.039062	37702.363281
851.865234	37520.703125
850.691406	37328.460938
849.517578	37453.585938
848.343750	37470.074219
847.168945	37637.695312
845.994141	37603.062500
844.819336	37285.425781
843.644531	37493.406250
842.469727	37526.882812
841.293945	37400.839844
840.118164	37151.511719
838.942383	37514.550781
837.765625	37482.097656
836.589844	37483.660156
835.413086	37780.558594
834.236328	37459.156250
833.059570	37702.851562
831.881836	37472.890625
830.704102	37429.855469
829.526367	37949.378906
828.348633	37466.929688
827.170898	37827.097656
825.992188	37701.281250
824.813477	37513.992188
823.634766	37623.687500
822.456055	37671.847656
821.276367	37520.703125
820.097656	37575.218750
818.917969	38138.339844
817.738281	37749.875000
816.557617	37539.503906
815.377930	37780.363281
814.197266	37754.300781
813.016602	37544.039062
811.834961	37645.042969
810.654297	37657.109375
809.472656	37739.007812
808.291016	37387.144531
807.109375	37509.246094
805.926758	37514.980469
804.745117	37505.910156
803.562500	37923.898438
802.379883	37798.496094
801.196289	37675.246094
800.013672	37742.214844
798.830078	37454.234375
797.646484	37791.578125
796.462891	37516.363281
795.278320	37671.984375
794.094727	37683.992188
792.910156	37366.734375
791.725586	37499.074219
790.540039	37684.113281
789.355469	37295.304688
788.169922	37708.089844
786.984375	37429.070312
785.798828	37508.558594
784.612305	37592.234375
783.425781	37456.699219
782.240234	37403.386719
781.052734	37493.351562
779.866211	37638.042969
778.678711	37393.082031
777.492188	37487.203125
776.303711	37463.402344
775.116211	37595.355469
773.928711	37194.855469
772.740234	37208.984375
771.551758	37622.789062
770.363281	37247.738281
769.173828	37657.175781
767.985352	37471.472656
766.795898	37487.632812
765.606445	37432.328125
764.416016	37177.421875
763.226562	37470.937500
762.036133	37260.226562
760.845703	37171.394531
759.655273	37376.554688
758.463867	37298.230469
757.273438	37377.351562
756.082031	37309.542969
754.890625	37629.914062
753.698242	37325.039062
752.506836	37158.699219
751.314453	37401.324219
750.122070	37144.878906
748.929688	37272.125000
747.736328	37114.292969
746.542969	37270.832031
745.349609	37433.593750
744.156250	37453.855469
742.962891	37306.574219
741.768555	37094.437500
740.574219	37160.804688
739.379883	37312.960938
738.185547	36778.664062
736.990234	37464.363281
735.795898	37118.503906
734.600586	37237.085938
733.404297	37090.050781
732.208984	37196.042969
731.012695	37274.820312
729.816406	37370.289062
728.620117	37421.835938
727.423828	37166.257812
726.226562	37443.410156
725.029297	37653.628906
723.832031	37387.703125
722.634766	37428.753906
721.437500	37365.429688
720.239258	37087.179688
719.041016	37030.195312
717.842773	37517.691406
716.643555	37272.933594
715.445312	37351.484375
714.246094	37469.621094
713.046875	37172.890625
711.846680	37388.964844
710.647461	37402.832031
709.447266	37454.191406
708.247070	37151.433594
707.046875	37146.589844
705.845703	37374.949219
704.644531	37384.636719
703.443359	37325.632812
702.242188	37630.820312
701.041016	37303.390625
699.838867	37410.843750
698.636719	37139.730469
697.434570	37455.117188
696.232422	37454.367188
695.029297	37644.855469
693.827148	37095.398438
692.624023	37445.878906
691.419922	37251.914062
690.216797	37483.835938
689.012695	37763.429688
687.808594	37735.621094
686.604492	37535.511719
685.400391	37318.875000
684.195312	37372.089844
682.990234	37450.179688
681.785156	37285.535156
680.580078	37388.496094
679.374023	37311.015625
678.168945	37343.441406
676.962891	37222.460938
675.755859	37507.730469
674.549805	37421.984375
673.342773	37263.761719
672.135742	37455.648438
670.928711	37618.468750
669.721680	37481.000000
668.513672	37211.089844
667.305664	37543.578125
666.097656	37232.367188
664.889648	37591.621094
663.680664	37032.277344
662.471680	37401.777344
661.262695	37764.929688
660.053711	37606.949219
658.844727	37544.109375
657.634766	37305.625000
656.424805	37453.625000
655.214844	37190.449219
654.004883	37520.175781
652.793945	37219.914062
651.583008	37440.078125
650.372070	37441.335938
649.161133	37568.492188
647.949219	37280.816406
646.737305	37137.675781
645.525391	37304.003906
644.313477	37385.714844
643.101562	37279.742188
641.888672	37274.832031
640.675781	37067.914062
639.462891	37314.468750
638.249023	37630.984375
637.036133	37409.691406
635.822266	37555.113281
634.608398	37043.542969
633.393555	37351.632812
632.179688	37352.878906
630.964844	37259.441406
629.750000	37260.699219
628.535156	37270.183594
627.319336	36940.250000
626.103516	37178.078125
624.887695	37072.414062
623.671875	37279.285156
622.456055	37364.804688
621.239258	37189.285156
620.022461	37139.171875
618.805664	37097.292969
617.588867	37464.164062
616.371094	37290.808594
615.153320	37031.281250
613.935547	37486.222656
612.717773	37091.292969
611.499023	37279.289062
610.280273	37298.972656
609.061523	36848.910156
607.842773	37024.535156
606.624023	36748.980469
605.404297	36815.898438
604.184570	37151.300781
602.964844	37173.027344
601.744141	37022.632812
600.524414	37042.324219
599.303711	37391.765625
598.083008	37214.785156
596.861328	37031.730469
595.640625	37444.429688
594.418945	37230.695312
593.197266	37141.863281
591.975586	37098.070312
590.752930	37134.066406
589.530273	36871.460938
588.307617	37443.203125
587.084961	37295.121094
585.862305	37153.222656
584.638672	37225.949219
583.415039	36975.824219
582.191406	37508.191406
580.967773	37109.003906
579.743164	37126.542969
578.518555	37419.699219
577.293945	37145.269531
576.069336	37468.921875
574.843750	36998.691406
573.618164	37201.878906
572.392578	37035.792969
571.166992	37039.035156
569.940430	36905.664062
568.714844	37098.515625
567.488281	37103.781250
566.260742	37170.171875
565.034180	37193.753906
563.806641	37188.804688
562.579102	37334.570312
561.351562	36999.710938
560.124023	36909.289062
558.895508	36947.136719
557.666992	36797.730469
556.438477	36721.636719
555.209961	36883.589844
553.980469	37071.921875
552.750977	36715.171875
551.521484	36545.609375
550.291992	36609.890625
549.061523	36639.593750
547.831055	36827.789062
546.600586	36973.242188
545.370117	36492.988281
544.139648	36778.585938
542.908203	36692.476562
541.676758	36898.746094
540.445312	36575.156250
539.212891	36432.308594
537.981445	36283.421875
536.749023	36380.058594
535.516602	36450.289062
534.283203	36441.406250
533.050781	36479.156250
531.817383	36332.417969
530.583984	36301.261719
529.349609	36505.171875
528.116211	36196.429688
526.881836	36286.847656
525.647461	36395.457031
524.413086	36485.796875
523.177734	36033.546875
521.942383	36132.015625
520.707031	36175.808594
519.471680	36233.742188
518.236328	36408.984375
517.000000	36084.585938
515.763672	35988.816406
514.527344	36513.773438
513.290039	36066.226562
512.053711	36285.789062
510.816406	36379.988281
509.578125	36064.031250
508.340820	36152.171875
507.102539	36052.464844
505.865234	36152.687500
504.625977	36012.636719
503.387695	35997.777344
502.149414	36112.074219
500.910156	35883.328125
499.670898	36027.859375
498.430664	36069.472656
497.191406	36203.828125
495.951172	40553.789062
494.710938	36524.789062
493.470703	36102.742188
492.229492	35952.875000
490.989258	35909.832031
489.748047	36340.140625
488.505859	35986.914062
487.264648	35579.453125
486.022461	36273.285156
484.780273	36359.027344
483.538086	36086.542969
482.295898	36184.355469
481.052734	36274.085938
479.809570	35854.953125
478.566406	36171.921875
477.323242	36342.015625
476.079102	36035.664062
474.834961	36135.375000
473.590820	36154.671875
472.346680	35888.703125
471.101562	36163.121094
469.856445	36168.343750
468.611328	36037.035156
467.366211	36269.109375
466.120117	36220.113281
464.875000	36078.832031
463.628906	36182.363281
462.381836	35738.253906
461.135742	36170.703125
459.888672	35734.781250
458.641602	35984.636719
457.394531	36021.933594
456.146484	35862.828125
454.899414	35569.542969
453.651367	36131.730469
452.402344	36044.789062
451.154297	35861.765625
449.905273	35903.039062
448.656250	35269.726562
447.407227	35781.398438
446.158203	35534.523438
444.908203	35855.898438
443.658203	35591.097656
442.408203	35590.367188
441.158203	35623.628906
439.907227	35416.988281
438.656250	35592.171875
437.405273	35593.433594
436.154297	35516.777344
434.902344	35412.179688
433.650391	35405.484375
432.398438	35336.886719
431.146484	35449.988281
429.894531	35686.796875
428.641602	35049.421875
427.388672	35248.304688
426.134766	35720.406250
424.881836	35392.531250
423.627930	35413.753906
422.374023	35381.132812
421.120117	35338.554688
419.865234	35301.972656
418.611328	35048.207031
417.356445	35141.183594
416.100586	35130.546875
414.845703	35064.152344
413.589844	35151.093750
412.333984	35373.375000
411.078125	35141.765625
409.822266	35230.628906
408.565430	35120.500000
407.308594	35062.128906
406.051758	35419.445312
404.793945	35363.027344
403.537109	35330.480469
402.279297	35136.941406
401.021484	35303.183594
399.762695	35067.996094
398.504883	35309.675781
397.246094	35247.371094
395.987305	35586.226562
394.727539	35287.617188
393.468750	35314.675781
392.208984	35585.843750
390.949219	35686.250000
389.688477	35344.199219
388.428711	35408.906250
387.167969	35780.984375
385.907227	35786.097656
384.646484	35503.750000
383.384766	35497.019531
382.123047	35504.160156
380.861328	35756.980469
379.599609	35482.769531
378.336914	35442.367188
377.074219	35788.121094
375.811523	35686.300781
374.548828	35408.347656
373.286133	35900.355469
372.022461	36010.285156
370.758789	35829.359375
369.494141	35840.363281
368.230469	36363.550781
366.965820	36651.250000
365.701172	36954.652344
364.436523	37101.800781
363.170898	37646.082031
361.906250	38571.460938
360.640625	39180.437500
359.374023	40476.460938
358.108398	42309.074219
356.841797	44006.742188
355.575195	45648.496094
354.308594	47743.519531
353.041992	49326.714844
351.774414	50552.253906
350.506836	50929.226562
349.239258	53149.820312
347.970703	55740.222656
346.702148	60143.136719
345.434570	63422.980469
344.165039	64979.402344
342.896484	63607.707031
341.626953	59610.921875
340.357422	53809.781250
339.087891	49503.308594
337.818359	46056.765625
336.547852	43343.703125
335.277344	41247.601562
334.006836	39905.828125
332.735352	39376.964844
331.464844	38429.390625
330.193359	37965.894531
328.921875	37622.496094
327.649414	37186.843750
326.377930	36998.972656
325.105469	36852.429688
323.833008	36601.828125
322.559570	36920.902344
321.286133	36364.039062
320.013672	36256.988281
318.739258	36732.980469
317.465820	36162.726562
316.191406	36501.195312
314.916992	36262.750000
313.642578	36324.500000
312.368164	36211.687500
311.092773	36208.714844
309.817383	36021.472656
308.541992	36261.570312
307.266602	36350.687500
305.990234	36202.699219
304.713867	36877.492188
303.437500	36453.308594
302.161133	36503.152344
300.883789	36678.269531
299.606445	37129.308594
298.329102	37531.250000
297.051758	38177.609375
295.773438	38526.375000
294.495117	39631.929688
293.216797	41149.671875
291.938477	41773.335938
290.659180	43092.660156
289.379883	43240.796875
288.100586	43328.304688
286.821289	43534.945312
285.541016	43735.648438
284.260742	43623.804688
282.980469	43658.445312
281.700195	43275.308594
280.418945	43073.832031
279.137695	42045.031250
277.856445	41471.214844
276.575195	41118.039062
275.292969	41363.734375
274.010742	40825.468750
272.728516	41971.812500
271.446289	42870.171875
270.163086	43585.000000
268.879883	45246.492188
267.596680	47413.843750
266.313477	50355.546875
265.029297	54049.734375
263.745117	59245.554688
262.460938	67061.421875
261.176758	78482.562500
259.891602	93565.281250
258.606445	114768.500000
257.321289	138727.578125
256.036133	159978.250000
254.750000	170159.406250
253.463867	163655.421875
252.177734	144193.968750
250.891602	119988.750000
249.604492	99264.648438
248.317383	83086.117188
247.030273	72563.390625
245.743164	63887.390625
244.455078	57688.015625
243.166992	53451.425781
241.878906	49468.734375
240.590820	46777.835938
239.301758	44039.468750
238.012695	42638.476562
236.723633	41333.035156
235.433594	39816.761719
234.144531	38663.550781
232.854492	38061.183594
231.564453	37162.578125
230.273438	36475.484375
228.982422	35703.421875
227.692383	35140.804688
226.400391	34802.996094
225.109375	33917.480469
223.817383	33928.414062
222.525391	33770.988281
221.233398	33331.152344
219.941406	32978.531250
218.648438	32976.093750
217.355469	32478.650391
216.062500	32470.503906
214.768555	32193.691406
213.475586	31994.283203
212.181641	31804.609375
210.886719	31898.974609
209.592773	31433.201172
208.297852	31481.253906
207.002930	31467.505859
205.708008	31353.386719
204.412109	30876.488281
203.117188	31167.726562
201.821289	30961.125000
200.524414	30991.845703
199.228516	30552.015625
197.931641	30615.574219
196.634766	30582.724609
195.337891	30387.990234
194.040039	30382.169922
192.743164	30607.539062
191.445312	30333.933594
190.146484	30264.570312
188.848633	30555.294922
187.549805	30073.939453
186.250977	29898.800781
184.952148	30041.248047
183.652344	30064.351562
182.352539	30050.894531
181.052734	30025.902344
179.752930	30295.121094
178.452148	29610.664062
177.151367	30054.771484
175.850586	29897.187500
174.549805	29741.585938
173.248047	30337.169922
171.946289	30008.679688
170.644531	30164.230469
169.342773	29924.212891
168.040039	30043.246094
166.737305	29893.542969
165.434570	29974.156250
164.131836	29931.955078
162.828125	30095.005859
161.524414	29419.943359
160.220703	29738.333984
158.916992	29529.425781
157.612305	29406.843750
156.307617	29280.476562
155.002930	29339.996094
153.698242	29238.589844
152.392578	29391.935547
151.086914	29328.849609
149.781250	29529.976562
148.474609	29430.517578
147.167969	29317.701172
145.861328	28969.587891
144.554688	29138.103516
143.248047	29165.021484
141.940430	28933.777344
140.632812	28637.619141
139.325195	29083.228516
138.016602	28725.996094
136.708008	28409.025391
135.399414	28760.808594
134.090820	28405.750000
132.781250	28392.654297
131.472656	27925.152344
130.163086	27618.175781
128.852539	27439.191406
127.542969	26983.585938
126.232422	26680.781250
124.921875	26755.765625
123.610352	26277.666016
122.299805	25959.912109
120.988281	25325.826172
119.676758	24728.197266
