#Wave		#Intensity
1498.781250	113346.492188
1497.724609	112875.414062
1496.668945	113584.210938
1495.612305	113074.046875
1494.555664	113789.648438
1493.499023	113080.914062
1492.441406	113197.867188
1491.384766	113012.085938
1490.327148	112526.109375
1489.269531	113040.210938
1488.211914	113190.156250
1487.153320	112969.046875
1486.095703	112885.039062
1485.037109	112843.578125
1483.978516	112908.414062
1482.919922	112706.382812
1481.861328	113394.484375
1480.801758	112975.265625
1479.742188	113280.734375
1478.683594	113168.429688
1477.623047	112824.960938
1476.563477	112172.601562
1475.503906	112711.453125
1474.443359	113120.421875
1473.382812	112192.523438
1472.322266	112580.210938
1471.261719	111737.570312
1470.200195	111875.429688
1469.139648	112352.476562
1468.078125	112148.625000
1467.016602	112385.234375
1465.954102	111710.531250
1464.892578	112137.812500
1463.830078	111851.750000
1462.768555	111438.710938
1461.706055	111858.734375
1460.642578	111852.812500
1459.580078	112397.257812
1458.516602	112391.226562
1457.453125	111421.203125
1456.389648	112656.554688
1455.326172	111611.601562
1454.262695	111697.351562
1453.198242	111851.195312
1452.134766	112000.281250
1451.070312	111409.468750
1450.004883	111126.492188
1448.940430	111191.093750
1447.875000	111748.625000
1446.810547	111249.804688
1445.745117	111600.609375
1444.679688	111761.250000
1443.613281	111140.703125
1442.547852	111775.117188
1441.481445	110622.484375
1440.415039	111812.390625
1439.348633	111053.960938
1438.282227	111523.859375
1437.214844	110957.882812
1436.147461	111287.054688
1435.080078	111890.156250
1434.012695	111123.000000
1432.945312	111341.898438
1431.877930	111158.039062
1430.809570	110693.367188
1429.741211	110736.687500
1428.672852	111182.445312
1427.604492	110806.890625
1426.535156	110789.343750
1425.465820	110692.281250
1424.397461	111161.093750
1423.327148	110926.062500
1422.257812	110642.031250
1421.188477	110963.351562
1420.118164	110835.953125
1419.047852	110944.539062
1417.977539	111384.734375
1416.907227	110827.632812
1415.835938	110623.281250
1414.765625	110603.406250
1413.694336	110333.812500
1412.623047	110152.976562
1411.551758	110630.148438
1410.479492	110631.265625
1409.408203	109946.687500
1408.335938	110878.343750
1407.263672	110716.203125
1406.191406	110817.523438
1405.118164	110191.648438
1404.045898	110626.234375
1402.972656	110676.250000
1401.899414	110230.085938
1400.825195	110377.953125
1399.751953	110737.664062
1398.677734	110198.593750
1397.604492	109971.617188
1396.530273	110940.937500
1395.455078	110411.414062
1394.380859	110326.421875
1393.305664	110525.234375
1392.231445	110096.054688
1391.156250	110285.523438
1390.080078	110165.726562
1389.004883	110273.750000
1387.929688	110002.937500
1386.853516	109258.218750
1385.777344	110014.476562
1384.701172	110366.312500
1383.624023	110109.585938
1382.547852	110205.875000
1381.470703	110269.617188
1380.393555	109813.429688
1379.316406	110332.046875
1378.238281	109927.039062
1377.161133	110190.273438
1376.083008	109980.257812
1375.004883	109844.515625
1373.926758	109711.140625
1372.847656	109807.296875
1371.769531	109544.179688
1370.690430	109976.320312
1369.611328	109361.093750
1368.532227	108685.867188
1367.453125	109472.257812
1366.373047	109093.632812
1365.292969	109488.406250
1364.212891	109195.546875
1363.132812	109349.460938
1362.052734	109491.742188
1360.971680	108814.992188
1359.891602	109146.976562
1358.810547	109293.828125
1357.729492	109126.156250
1356.647461	109411.656250
1355.566406	109489.023438
1354.484375	108942.390625
1353.402344	109294.765625
1352.320312	109422.921875
1351.237305	108978.210938
1350.155273	108808.468750
1349.072266	108895.070312
1347.989258	108399.890625
1346.906250	108622.703125
1345.823242	109000.046875
1344.739258	108687.375000
1343.655273	109611.273438
1342.571289	109344.726562
1341.487305	108771.578125
1340.403320	108922.578125
1339.318359	108829.171875
1338.234375	108415.437500
1337.149414	108414.320312
1336.064453	108348.687500
1334.978516	108340.664062
1333.893555	108804.773438
1332.807617	108656.203125
1331.721680	108249.820312
1330.635742	108923.148438
1329.548828	108114.109375
1328.462891	108032.476562
1327.375977	108512.210938
1326.289062	108465.031250
1325.202148	107987.804688
1324.115234	107982.117188
1323.027344	108233.906250
1321.939453	107954.640625
1320.851562	108592.414062
1319.763672	107768.617188
1318.675781	107962.812500
1317.586914	108639.273438
1316.498047	107958.281250
1315.410156	108124.773438
1314.320312	107944.562500
1313.231445	107941.132812
1312.141602	107988.195312
1311.052734	108023.757812
1309.962891	107740.445312
1308.872070	108120.062500
1307.782227	108022.570312
1306.692383	107604.125000
1305.601562	107724.523438
1304.510742	107640.890625
1303.419922	108253.890625
1302.328125	106795.546875
1301.237305	107969.679688
1300.145508	107929.562500
1299.053711	107081.140625
1297.961914	107684.507812
1296.869141	107120.273438
1295.777344	106917.828125
1294.684570	106946.554688
1293.591797	107366.468750
1292.499023	107857.140625
1291.405273	107215.601562
1290.312500	107223.656250
1289.218750	106303.554688
1288.125000	106851.179688
1287.031250	107352.906250
1285.936523	106709.726562
1284.842773	107288.953125
1283.748047	106805.898438
1282.653320	106542.234375
1281.557617	106570.914062
1280.462891	107021.890625
1279.367188	106377.164062
1278.272461	106109.187500
1277.176758	106678.632812
1276.080078	106686.703125
1274.984375	106197.570312
1273.887695	106449.718750
1272.791016	106555.851562
1271.694336	106185.531250
1270.597656	106512.734375
1269.500977	105777.953125
1268.403320	106043.593750
1267.305664	105609.835938
1266.208008	105775.187500
1265.110352	106206.890625
1264.011719	105741.453125
1262.913086	106059.187500
1261.815430	105923.921875
1260.715820	105761.390625
1259.617188	105544.320312
1258.518555	105215.875000
1257.418945	106026.875000
1256.319336	105859.882812
1255.219727	104885.921875
1254.120117	105248.773438
1253.019531	105770.562500
1251.918945	105315.164062
1250.818359	105093.906250
1249.717773	105277.007812
1248.617188	105260.210938
1247.515625	105116.265625
1246.415039	105478.578125
1245.313477	105209.812500
1244.211914	105662.742188
1243.109375	105389.484375
1242.007812	105483.804688
1240.905273	104875.015625
1239.802734	104964.851562
1238.700195	105578.359375
1237.596680	105015.203125
1236.494141	104975.765625
1235.390625	104705.218750
1234.287109	105300.187500
1233.183594	104803.164062
1232.079102	104976.656250
1230.975586	105007.429688
1229.871094	105244.203125
1228.766602	104731.687500
1227.662109	104475.070312
1226.556641	105186.953125
1225.452148	104925.812500
1224.346680	104590.125000
1223.241211	104632.210938
1222.135742	104730.796875
1221.029297	104867.781250
1219.922852	104932.375000
1218.817383	104888.476562
1217.709961	104365.609375
1216.603516	105548.421875
1215.497070	104982.703125
1214.389648	104563.968750
1213.282227	105262.937500
1212.174805	105349.921875
1211.067383	104552.171875
1209.958984	104235.343750
1208.850586	104778.171875
1207.743164	105296.000000
1206.633789	104902.507812
1205.525391	105154.039062
1204.416992	105310.789062
1203.307617	104638.000000
1202.198242	105263.531250
1201.088867	105399.882812
1199.978516	104758.968750
1198.869141	104667.859375
1197.758789	105015.921875
1196.648438	104947.304688
1195.538086	105160.109375
1194.426758	105280.546875
1193.316406	105137.648438
1192.205078	104934.054688
1191.093750	104375.101562
1189.982422	104522.570312
1188.870117	104865.609375
1187.758789	104509.312500
1186.646484	104472.328125
1185.534180	104401.648438
1184.420898	104587.156250
1183.308594	104655.757812
1182.195312	105029.828125
1181.082031	104078.710938
1179.968750	104632.367188
1178.855469	104334.960938
1177.741211	105328.304688
1176.627930	104638.132812
1175.513672	104486.718750
1174.399414	104721.218750
1173.284180	104982.546875
1172.169922	104577.726562
1171.054688	104657.359375
1169.939453	104232.562500
1168.824219	104431.007812
1167.708008	104273.070312
1166.592773	104272.023438
1165.476562	104322.492188
1164.360352	104500.601562
1163.244141	104000.132812
1162.126953	104648.398438
1161.010742	104271.195312
1159.893555	103997.070312
1158.776367	104085.546875
1157.659180	103901.046875
1156.541016	103564.492188
1155.423828	103608.257812
1154.305664	103759.335938
1153.187500	103773.976562
1152.068359	103594.148438
1150.950195	103691.492188
1149.831055	103891.578125
1148.711914	103106.390625
1147.592773	103407.015625
1146.473633	103709.765625
1145.353516	103601.562500
1144.233398	103395.171875
1143.113281	103193.312500
1141.993164	103480.234375
1140.873047	103436.835938
1139.751953	104033.679688
1138.630859	103628.875000
1137.509766	102829.507812
1136.388672	103613.398438
1135.267578	102635.992188
1134.145508	103138.804688
1133.023438	102837.007812
1131.901367	103116.804688
1130.779297	102485.437500
1129.657227	102517.984375
1128.534180	102477.023438
1127.411133	102963.703125
1126.288086	102826.960938
1125.165039	102258.515625
1124.041016	102889.593750
1122.916992	102432.570312
1121.792969	102391.640625
1120.668945	102606.468750
1119.544922	102549.953125
1118.419922	102780.234375
1117.294922	102552.554688
1116.169922	102982.734375
1115.044922	102264.070312
1113.919922	102285.398438
1112.793945	101922.476562
1111.667969	102414.617188
1110.541992	101936.343750
1109.416016	102632.515625
1108.290039	101668.320312
1107.163086	102204.515625
1106.036133	102037.210938
1104.909180	101960.914062
1103.782227	102172.953125
1102.654297	102078.906250
1101.526367	101610.226562
1100.398438	101742.398438
1099.270508	101850.140625
1098.142578	101536.843750
1097.013672	102313.617188
1095.885742	102013.632812
1094.756836	101806.765625
1093.626953	102326.203125
1092.498047	101822.703125
1091.368164	102322.023438
1090.238281	102150.640625
1089.108398	101997.007812
1087.978516	101830.164062
1086.848633	102329.101562
1085.717773	102350.203125
1084.586914	101816.359375
1083.456055	101934.804688
1082.325195	102214.539062
1081.193359	102047.804688
1080.061523	102117.523438
1078.929688	101902.265625
1077.797852	102256.867188
1076.666016	102412.617188
1075.533203	102190.781250
1074.400391	102070.570312
1073.267578	101460.460938
1072.134766	102249.476562
1071.001953	102268.281250
1069.868164	101779.773438
1068.734375	101800.851562
1067.600586	102853.789062
1066.466797	101757.000000
1065.332031	102071.195312
1064.198242	101455.343750
1063.063477	101932.507812
1061.928711	101757.453125
1060.792969	101538.414062
1059.658203	101561.671875
1058.522461	101884.343750
1057.386719	101432.054688
1056.250977	101098.781250
1055.114258	101835.015625
1053.978516	101613.976562
1052.841797	101927.515625
1051.705078	101834.085938
1050.567383	102253.000000
1049.430664	101770.421875
1048.292969	101850.695312
1047.155273	102284.750000
1046.017578	101828.781250
1044.879883	101425.695312
1043.741211	101508.156250
1042.603516	101590.578125
1041.464844	101308.500000
1040.325195	101388.734375
1039.186523	101615.976562
1038.046875	101434.976562
1036.908203	101798.140625
1035.768555	101448.265625
1034.627930	101140.179688
1033.488281	101724.656250
1032.347656	101710.398438
1031.207031	101650.117188
1030.066406	101673.125000
1028.925781	101062.875000
1027.784180	101167.039062
1026.642578	100706.039062
1025.500977	101399.312500
1024.359375	100984.421875
1023.217773	100906.796875
1022.075195	101361.070312
1020.932617	101294.335938
1019.790039	101137.921875
1018.647461	101209.070312
1017.504883	100759.640625
1016.361328	101228.804688
1015.217773	100825.437500
1014.074219	101257.250000
1012.930664	101212.453125
1011.786133	100866.117188
1010.641602	100880.382812
1009.497070	101377.375000
1008.352539	100769.109375
1007.208008	100820.500000
1006.062500	100605.515625
1004.916992	101134.921875
1003.771484	100815.195312
1002.625977	101438.179688
1001.479492	100516.406250
1000.333984	101235.179688
999.187500	100791.359375
998.041016	101014.867188
996.893555	101103.140625
995.747070	100958.164062
994.599609	101044.226562
993.452148	100927.632812
992.304688	100490.859375
991.156250	100746.820312
990.008789	100399.515625
988.860352	100907.937500
987.711914	100449.703125
986.563477	100685.882812
985.414062	100878.453125
984.264648	100877.328125
983.115234	100595.601562
981.965820	100648.882812
980.816406	100639.093750
979.666016	101227.125000
978.515625	101080.281250
977.365234	100809.625000
976.214844	101095.281250
975.064453	101115.804688
973.913086	100569.437500
972.761719	100844.109375
971.610352	100584.570312
970.458984	100563.906250
969.306641	101022.890625
968.154297	101234.335938
967.001953	100558.343750
965.849609	100492.132812
964.697266	101154.640625
963.543945	101044.968750
962.390625	100813.921875
961.237305	101354.609375
960.083984	101164.757812
958.930664	100684.632812
957.776367	101073.382812
956.622070	100831.695312
955.467773	100797.984375
954.312500	100441.671875
953.158203	100879.953125
952.002930	100904.679688
950.847656	100728.140625
949.692383	101094.718750
948.536133	100377.406250
947.380859	100650.906250
946.224609	101060.523438
945.068359	100750.054688
943.911133	101021.156250
942.754883	100775.632812
941.597656	100966.671875
940.440430	100870.312500
939.283203	100527.734375
938.125000	100772.695312
936.967773	100907.437500
935.809570	100271.437500
934.651367	100460.171875
933.493164	100400.671875
932.333984	100446.898438
931.174805	100186.789062
930.015625	100819.687500
928.856445	100106.750000
927.697266	100663.960938
926.537109	100319.914062
925.377930	100361.773438
924.216797	100407.921875
923.056641	100357.093750
921.896484	100168.429688
920.735352	100274.875000
919.574219	99733.156250
918.413086	99574.843750
917.251953	100075.218750
916.089844	100254.757812
914.927734	99963.015625
913.765625	100439.367188
912.603516	99308.859375
911.441406	99185.171875
910.278320	99151.828125
909.115234	99703.203125
907.952148	100099.617188
906.789062	99528.890625
905.625000	99854.289062
904.460938	99917.492188
903.296875	99302.007812
902.132812	99260.062500
900.968750	99106.492188
899.803711	99440.234375
898.638672	99398.273438
897.473633	99206.125000
896.308594	99174.945312
895.142578	99416.171875
893.977539	99421.414062
892.811523	98680.492188
891.644531	98977.406250
890.478516	99077.015625
889.311523	98758.710938
888.144531	98695.484375
886.977539	98925.742188
885.810547	99183.757812
884.643555	99529.468750
883.475586	98766.039062
882.307617	98782.046875
881.139648	99183.273438
879.970703	99010.890625
878.802734	99099.562500
877.633789	99414.937500
876.464844	98605.296875
875.295898	99100.242188
874.125977	98955.796875
872.956055	99221.789062
871.786133	99261.148438
870.616211	98905.218750
869.446289	99418.851562
868.275391	99210.390625
867.104492	99204.867188
865.933594	99530.265625
864.762695	99225.828125
863.591797	99457.187500
862.419922	99063.242188
861.248047	99618.820312
860.076172	98862.367188
858.903320	99415.632812
857.731445	99120.054688
856.558594	99589.914062
855.385742	98721.039062
854.212891	99438.000000
853.039062	99285.375000
851.865234	99477.906250
850.691406	99674.617188
849.517578	99781.820312
848.343750	99463.148438
847.168945	99391.531250
845.994141	100066.968750
844.819336	99386.664062
843.644531	99608.679688
842.469727	99192.468750
841.293945	99622.851562
840.118164	99564.007812
838.942383	100125.960938
837.765625	99850.234375
836.589844	100756.195312
835.413086	100238.218750
834.236328	99267.937500
833.059570	100836.164062
831.881836	100044.507812
830.704102	99764.828125
829.526367	100313.132812
828.348633	100201.171875
827.170898	100399.054688
825.992188	100055.843750
824.813477	99647.000000
823.634766	100428.093750
822.456055	99889.976562
821.276367	99962.632812
820.097656	100346.843750
818.917969	100198.976562
817.738281	100010.890625
816.557617	100456.304688
815.377930	100266.117188
814.197266	99925.640625
813.016602	100212.015625
811.834961	100341.617188
810.654297	100223.539062
809.472656	100571.046875
808.291016	100084.820312
807.109375	100317.984375
805.926758	99914.460938
804.745117	100335.757812
803.562500	100016.937500
802.379883	100290.085938
801.196289	100267.257812
800.013672	100012.007812
798.830078	99915.281250
797.646484	99672.851562
796.462891	99635.351562
795.278320	99828.007812
794.094727	100339.351562
792.910156	99771.968750
791.725586	99970.804688
790.540039	100477.609375
789.355469	99503.367188
788.169922	99744.312500
786.984375	99972.515625
785.798828	99932.875000
784.612305	100042.898438
783.425781	99790.390625
782.240234	99554.835938
781.052734	100429.593750
779.866211	99696.898438
778.678711	99806.851562
777.492188	100179.945312
776.303711	100504.476562
775.116211	99534.453125
773.928711	99694.835938
772.740234	99282.867188
771.551758	99924.953125
770.363281	100303.890625
769.173828	99259.085938
767.985352	99984.898438
766.795898	99928.484375
765.606445	100057.023438
764.416016	99281.976562
763.226562	99679.500000
762.036133	99234.570312
760.845703	99531.140625
759.655273	99573.523438
758.463867	100268.773438
757.273438	99654.046875
756.082031	99883.140625
754.890625	99726.093750
753.698242	100022.203125
752.506836	99460.390625
751.314453	99502.703125
750.122070	99194.875000
748.929688	99599.851562
747.736328	99797.187500
746.542969	100015.406250
745.349609	99762.156250
744.156250	100003.328125
742.962891	99758.546875
741.768555	99476.156250
740.574219	99897.273438
739.379883	99606.585938
738.185547	99669.656250
736.990234	99941.937500
735.795898	99431.742188
734.600586	99766.695312
733.404297	99566.195312
732.208984	99254.953125
731.012695	99575.109375
729.816406	99477.156250
728.620117	99416.835938
727.423828	99732.593750
726.226562	100094.179688
725.029297	99244.359375
723.832031	99764.578125
722.634766	99288.804688
721.437500	99203.523438
720.239258	99813.179688
719.041016	99489.960938
717.842773	99853.171875
716.643555	99899.226562
715.445312	100162.125000
714.246094	99951.648438
713.046875	99511.953125
711.846680	99756.007812
710.647461	100183.328125
709.447266	99870.906250
708.247070	99752.304688
707.046875	99894.070312
705.845703	99673.476562
704.644531	100256.523438
703.443359	99673.773438
702.242188	100192.085938
701.041016	99386.929688
699.838867	100396.031250
698.636719	100094.445312
697.434570	100040.429688
696.232422	100142.359375
695.029297	99865.921875
693.827148	100102.921875
692.624023	99924.242188
691.419922	99888.984375
690.216797	100042.750000
689.012695	99866.250000
687.808594	100125.843750
686.604492	100269.085938
685.400391	100534.726562
684.195312	100466.156250
682.990234	100239.921875
681.785156	100306.265625
680.580078	100376.718750
679.374023	100963.484375
678.168945	100658.523438
676.962891	100791.046875
675.755859	100654.101562
674.549805	100338.992188
673.342773	100102.726562
672.135742	100305.664062
670.928711	100392.546875
669.721680	100177.093750
668.513672	100872.585938
667.305664	100334.226562
666.097656	100745.914062
664.889648	99696.734375
663.680664	100551.054688
662.471680	99475.406250
661.262695	99915.875000
660.053711	99704.929688
658.844727	100581.335938
657.634766	99855.734375
656.424805	100217.265625
655.214844	100512.554688
654.004883	99721.257812
652.793945	99952.492188
651.583008	100047.367188
650.372070	100162.843750
649.161133	100664.242188
647.949219	100366.828125
646.737305	100050.960938
645.525391	99960.046875
644.313477	99473.179688
643.101562	100225.781250
641.888672	99817.375000
640.675781	100184.164062
639.462891	100414.789062
638.249023	99920.023438
637.036133	99602.609375
635.822266	99816.726562
634.608398	99666.250000
633.393555	100022.328125
632.179688	100069.476562
630.964844	99976.656250
629.750000	99960.000000
628.535156	99881.625000
627.319336	99465.914062
626.103516	99459.632812
624.887695	99463.632812
623.671875	99568.359375
622.456055	99494.218750
621.239258	99660.546875
620.022461	99251.484375
618.805664	99306.851562
617.588867	99779.148438
616.371094	99323.046875
615.153320	98772.664062
613.935547	99659.453125
612.717773	99671.562500
611.499023	99576.968750
610.280273	98850.492188
609.061523	99592.984375
607.842773	99736.343750
606.624023	99104.554688
605.404297	99598.507812
604.184570	99920.093750
602.964844	99665.687500
601.744141	98884.789062
600.524414	99351.765625
599.303711	99673.140625
598.083008	99005.296875
596.861328	99508.828125
595.640625	99516.781250
594.418945	99713.015625
593.197266	99594.046875
591.975586	99696.078125
590.752930	99341.914062
589.530273	99556.421875
588.307617	99642.031250
587.084961	99433.210938
585.862305	99988.914062
584.638672	100178.593750
583.415039	99297.570312
582.191406	99548.585938
580.967773	99348.125000
579.743164	99962.515625
578.518555	99504.796875
577.293945	99904.585938
576.069336	99959.304688
574.843750	99434.492188
573.618164	100595.023438
572.392578	100104.953125
571.166992	99845.507812
569.940430	100040.859375
568.714844	99818.210938
567.488281	99383.671875
566.260742	100335.015625
565.034180	100191.882812
563.806641	99586.390625
562.579102	99205.148438
561.351562	99909.406250
560.124023	99900.812500
558.895508	99690.703125
557.666992	99584.460938
556.438477	99317.507812
555.209961	99422.937500
553.980469	99906.656250
552.750977	100133.945312
551.521484	99909.773438
550.291992	99187.617188
549.061523	99402.710938
547.831055	99449.046875
546.600586	99460.828125
545.370117	99494.945312
544.139648	99427.492188
542.908203	99276.812500
541.676758	98917.070312
540.445312	98833.507812
539.212891	98794.625000
537.981445	98707.054688
536.749023	98477.507812
535.516602	98481.296875
534.283203	98578.359375
533.050781	98527.375000
531.817383	98429.773438
530.583984	98224.796875
529.349609	98641.984375
528.116211	97924.453125
526.881836	97987.046875
525.647461	98090.117188
524.413086	97484.445312
523.177734	98144.296875
521.942383	97492.281250
520.707031	97811.882812
519.471680	97491.992188
518.236328	97675.929688
517.000000	97853.726562
515.763672	97598.710938
514.527344	97299.296875
513.290039	97555.882812
512.053711	97763.867188
510.816406	97533.281250
509.578125	97260.359375
508.340820	97504.617188
507.102539	97886.117188
505.865234	97445.671875
504.625977	97082.109375
503.387695	97584.554688
502.149414	97069.734375
500.910156	97491.281250
499.670898	97251.015625
498.430664	97375.882812
497.191406	97363.578125
495.951172	97607.312500
494.710938	97947.710938
493.470703	97675.312500
492.229492	97122.929688
490.989258	97954.773438
489.748047	97815.445312
488.505859	97623.812500
487.264648	97319.492188
486.022461	97355.492188
484.780273	97860.429688
483.538086	97980.812500
482.295898	97177.679688
481.052734	97795.000000
479.809570	97720.234375
478.566406	97842.546875
477.323242	98212.093750
476.079102	97612.664062
474.834961	97445.531250
473.590820	97744.601562
472.346680	98232.398438
471.101562	97530.960938
469.856445	97386.039062
468.611328	97753.140625
467.366211	97881.226562
466.120117	97678.101562
464.875000	97555.312500
463.628906	97661.281250
462.381836	98136.273438
461.135742	97650.468750
459.888672	97198.929688
458.641602	97170.546875
457.394531	96763.351562
456.146484	97268.101562
454.899414	97025.328125
453.651367	97519.812500
452.402344	97166.914062
451.154297	96874.226562
449.905273	96944.007812
448.656250	97344.039062
447.407227	96312.984375
446.158203	96590.914062
444.908203	97066.796875
443.658203	96700.414062
442.408203	96570.148438
441.158203	96611.875000
439.907227	96337.726562
438.656250	96775.210938
437.405273	96093.476562
436.154297	96448.914062
434.902344	95875.367188
433.650391	96548.250000
432.398438	95996.843750
431.146484	96611.546875
429.894531	95812.828125
428.641602	96169.882812
427.388672	96127.742188
426.134766	95872.164062
424.881836	95632.632812
423.627930	95516.828125
422.374023	95428.968750
421.120117	95865.398438
419.865234	96032.601562
418.611328	96020.406250
417.356445	95779.101562
416.100586	95928.281250
414.845703	95943.976562
413.589844	96053.242188
412.333984	95284.554688
411.078125	95312.289062
409.822266	95608.656250
408.565430	95568.664062
407.308594	95755.453125
406.051758	95898.414062
404.793945	95729.125000
403.537109	96029.085938
402.279297	95738.578125
401.021484	95738.328125
399.762695	95604.945312
398.504883	95757.671875
397.246094	95715.695312
395.987305	95902.101562
394.727539	96080.484375
393.468750	95949.125000
392.208984	95639.187500
390.949219	95793.695312
389.688477	95977.898438
388.428711	95846.640625
387.167969	95493.304688
385.907227	96512.218750
384.646484	95780.234375
383.384766	96459.765625
382.123047	96378.054688
380.861328	96088.335938
379.599609	96476.210938
378.336914	96043.968750
377.074219	96611.890625
375.811523	95896.664062
374.548828	96688.062500
373.286133	95814.757812
372.022461	96447.570312
370.758789	96587.531250
369.494141	96854.031250
368.230469	96835.648438
366.965820	97032.781250
365.701172	97623.226562
364.436523	98185.773438
363.170898	99516.789062
361.906250	100134.070312
360.640625	102368.890625
359.374023	103905.710938
358.108398	106626.679688
356.841797	109696.046875
355.575195	112491.851562
354.308594	116308.835938
353.041992	119491.007812
351.774414	121727.046875
350.506836	123437.593750
349.239258	125571.453125
347.970703	129289.632812
346.702148	136042.046875
345.434570	142342.531250
344.165039	145294.796875
342.896484	143115.859375
341.626953	136303.062500
340.357422	126597.929688
339.087891	118656.718750
337.818359	112643.796875
336.547852	108315.960938
335.277344	105125.203125
334.006836	102732.468750
332.735352	101727.429688
331.464844	99782.679688
330.193359	99165.945312
328.921875	98362.664062
327.649414	98003.914062
326.377930	97989.203125
325.105469	97159.085938
323.833008	96963.804688
322.559570	96931.609375
321.286133	97111.507812
320.013672	96423.531250
318.739258	96943.031250
317.465820	96225.906250
316.191406	96694.218750
314.916992	96560.070312
313.642578	96816.296875
312.368164	96346.820312
311.092773	96128.484375
309.817383	96566.945312
308.541992	95937.046875
307.266602	96777.093750
305.990234	96186.570312
304.713867	96326.921875
303.437500	96308.578125
302.161133	96795.429688
300.883789	97368.234375
299.606445	96926.890625
298.329102	98155.039062
297.051758	99312.265625
295.773438	100263.648438
294.495117	102042.000000
293.216797	103608.468750
291.938477	105620.109375
290.659180	106765.015625
289.379883	108314.046875
288.100586	108117.539062
286.821289	108141.867188
285.541016	107857.562500
284.260742	108020.578125
282.980469	108335.820312
281.700195	107629.960938
280.418945	106210.007812
279.137695	104722.296875
277.856445	104604.781250
276.575195	103004.796875
275.292969	103459.070312
274.010742	103807.875000
272.728516	104519.156250
271.446289	106169.656250
270.163086	107928.664062
268.879883	110511.179688
267.596680	114288.812500
266.313477	119019.367188
265.029297	125917.421875
263.745117	135443.156250
262.460938	149039.437500
261.176758	167970.890625
259.891602	195556.015625
258.606445	232077.765625
257.321289	275580.093750
256.036133	313673.125000
254.750000	334019.125000
253.463867	324072.187500
252.177734	289431.656250
250.891602	246382.390625
249.604492	208793.437500
248.317383	180132.906250
247.030273	159284.828125
245.743164	144029.156250
244.455078	133485.203125
243.166992	124940.625000
241.878906	118194.390625
240.590820	113160.109375
239.301758	108537.054688
238.012695	105841.710938
236.723633	103506.140625
235.433594	101545.640625
234.144531	98932.632812
232.854492	97632.679688
231.564453	96108.445312
230.273438	95026.500000
228.982422	93390.992188
227.692383	93028.429688
226.400391	92040.609375
225.109375	91068.656250
223.817383	90157.062500
222.525391	89063.914062
221.233398	89056.554688
219.941406	88476.632812
218.648438	87813.757812
217.355469	87704.148438
216.062500	87393.523438
214.768555	86994.093750
213.475586	86701.101562
212.181641	86238.195312
210.886719	86078.742188
209.592773	85826.640625
208.297852	85493.531250
207.002930	85278.312500
205.708008	84617.273438
204.412109	84577.921875
203.117188	84239.492188
201.821289	84115.335938
200.524414	84093.445312
199.228516	83664.656250
197.931641	83783.601562
196.634766	83582.500000
195.337891	82853.382812
194.040039	83190.148438
192.743164	82786.968750
191.445312	82672.875000
190.146484	82581.929688
188.848633	82138.656250
187.549805	82840.976562
186.250977	81893.539062
184.952148	82501.335938
183.652344	82206.546875
182.352539	81906.093750
181.052734	81732.687500
179.752930	82130.445312
178.452148	81872.468750
177.151367	81906.750000
175.850586	81316.429688
174.549805	81710.101562
173.248047	81971.062500
171.946289	81371.460938
170.644531	81899.304688
169.342773	81858.640625
168.040039	81821.820312
166.737305	81598.851562
165.434570	80930.796875
164.131836	81135.898438
162.828125	80729.039062
161.524414	80863.132812
160.220703	80650.132812
158.916992	80559.890625
157.612305	79760.531250
156.307617	79842.953125
155.002930	79919.593750
153.698242	79841.039062
152.392578	79728.039062
151.086914	79680.187500
149.781250	79551.937500
148.474609	79144.281250
147.167969	79308.976562
145.861328	79215.296875
144.554688	79047.054688
143.248047	79125.585938
141.940430	78808.257812
140.632812	78707.093750
139.325195	78598.312500
138.016602	77956.367188
136.708008	77920.367188
135.399414	77217.664062
134.090820	76979.351562
132.781250	76177.789062
131.472656	75382.250000
130.163086	75087.156250
128.852539	74259.687500
127.542969	73045.164062
126.232422	72008.539062
124.921875	71121.085938
123.610352	69877.343750
122.299805	68979.195312
120.988281	67763.031250
119.676758	65304.625000
