#Wave		#Intensity
1999.057617	100468.007812
1998.089844	100535.179688
1997.122070	101142.710938
1996.154297	101161.234375
1995.186523	100696.921875
1994.217773	101133.718750
1993.249023	101118.671875
1992.280273	101119.109375
1991.311523	102221.273438
1990.341797	101555.945312
1989.373047	101251.937500
1988.403320	100948.039062
1987.433594	101206.320312
1986.463867	101549.578125
1985.494141	101165.875000
1984.524414	101377.585938
1983.553711	101174.390625
1982.583008	102524.671875
1981.613281	101363.187500
1980.641602	101932.656250
1979.670898	102471.031250
1978.700195	101907.398438
1977.728516	102440.429688
1976.756836	101936.179688
1975.785156	102510.179688
1974.813477	101957.210938
1973.841797	102070.593750
1972.869141	102055.351562
1971.897461	102312.664062
1970.924805	102371.929688
1969.952148	101919.687500
1968.979492	101876.203125
1968.005859	102611.250000
1967.033203	102405.804688
1966.059570	102539.476562
1965.085938	102501.031250
1964.112305	102380.429688
1963.138672	102318.914062
1962.165039	102490.992188
1961.190430	102283.195312
1960.215820	103278.828125
1959.242188	102647.671875
1958.266602	102504.062500
1957.291992	102975.976562
1956.317383	102716.976562
1955.341797	103214.312500
1954.366211	102286.382812
1953.390625	103050.125000
1952.415039	103460.023438
1951.439453	103508.554688
1950.463867	103234.335938
1949.487305	103003.750000
1948.510742	103927.992188
1947.534180	103313.359375
1946.557617	104122.039062
1945.580078	103290.054688
1944.603516	103768.382812
1943.625977	102696.273438
1942.648438	103056.867188
1941.670898	102688.507812
1940.693359	103639.609375
1939.715820	103636.828125
1938.737305	103388.679688
1937.758789	103337.382812
1936.780273	103487.953125
1935.801758	103786.632812
1934.823242	103375.148438
1933.844727	103387.718750
1932.865234	103410.492188
1931.885742	103673.226562
1930.906250	103249.265625
1929.926758	104170.320312
1928.947266	103220.812500
1927.966797	103784.398438
1926.986328	104263.609375
1926.006836	103470.125000
1925.026367	103724.851562
1924.044922	103864.757812
1923.064453	104262.046875
1922.083008	103494.585938
1921.102539	103473.929688
1920.121094	103815.023438
1919.139648	104000.617188
1918.157227	103773.601562
1917.175781	103801.273438
1916.193359	104030.039062
1915.211914	103602.046875
1914.229492	102952.804688
1913.246094	104199.328125
1912.263672	103649.414062
1911.281250	104119.617188
1910.297852	104192.937500
1909.314453	103938.242188
1908.331055	104001.390625
1907.347656	103584.140625
1906.363281	104053.921875
1905.379883	104312.648438
1904.395508	104025.109375
1903.411133	104499.632812
1902.426758	103864.242188
1901.442383	103950.156250
1900.458008	103673.015625
1899.472656	104192.937500
1898.487305	104263.507812
1897.501953	104054.953125
1896.516602	104270.109375
1895.531250	104254.382812
1894.544922	104248.796875
1893.559570	103586.523438
1892.573242	104017.070312
1891.586914	104090.093750
1890.599609	104155.476562
1889.613281	104058.679688
1888.625977	104412.835938
1887.639648	104153.921875
1886.652344	104176.179688
1885.665039	104013.601562
1884.676758	104291.554688
1883.689453	103931.585938
1882.701172	104713.031250
1881.713867	104256.960938
1880.725586	103990.773438
1879.736328	104116.703125
1878.748047	103794.992188
1877.759766	104381.070312
1876.770508	104795.046875
1875.781250	104278.757812
1874.791992	104487.898438
1873.802734	104739.921875
1872.812500	104557.351562
1871.823242	104703.187500
1870.833008	104745.421875
1869.842773	104769.976562
1868.852539	104991.406250
1867.862305	105303.625000
1866.871094	104401.929688
1865.880859	104534.992188
1864.889648	104410.703125
1863.898438	105305.406250
1862.907227	104830.500000
1861.915039	104454.078125
1860.923828	104823.960938
1859.931641	105039.960938
1858.939453	104777.085938
1857.947266	105383.531250
1856.955078	105747.937500
1855.961914	105117.343750
1854.969727	104746.343750
1853.976562	105498.390625
1852.983398	105444.625000
1851.990234	105562.023438
1850.997070	104944.578125
1850.002930	105172.718750
1849.008789	106024.625000
1848.014648	105674.007812
1847.020508	105652.937500
1846.026367	105787.750000
1845.032227	105437.351562
1844.037109	105795.828125
1843.042969	105284.718750
1842.047852	105615.460938
1841.051758	105840.570312
1840.056641	105646.164062
1839.061523	105728.046875
1838.065430	106078.539062
1837.069336	106205.492188
1836.073242	105785.265625
1835.077148	106419.109375
1834.081055	105798.265625
1833.083984	105767.132812
1832.086914	106445.773438
1831.090820	106045.914062
1830.092773	106428.414062
1829.095703	106372.109375
1828.098633	106511.304688
1827.100586	106171.835938
1826.102539	105985.304688
1825.104492	106653.031250
1824.106445	105902.960938
1823.108398	106615.523438
1822.109375	106814.593750
1821.111328	106888.429688
1820.112305	106053.734375
1819.113281	106968.445312
1818.113281	105833.796875
1817.114258	106620.640625
1816.114258	106791.960938
1815.115234	106928.210938
1814.115234	106419.382812
1813.115234	107490.515625
1812.114258	106369.445312
1811.114258	106525.640625
1810.113281	106734.250000
1809.112305	106862.843750
1808.111328	106704.179688
1807.110352	106505.617188
1806.109375	106539.304688
1805.107422	107149.578125
1804.105469	106272.195312
1803.103516	107179.234375
1802.101562	105967.843750
1801.099609	107550.585938
1800.096680	106833.351562
1799.094727	106517.812500
1798.091797	106623.710938
1797.088867	107051.117188
1796.085938	106596.140625
1795.082031	106599.789062
1794.079102	106379.226562
1793.075195	107184.968750
1792.071289	107103.835938
1791.067383	106716.445312
1790.063477	106617.984375
1789.058594	106967.593750
1788.053711	107015.953125
1787.049805	106728.367188
1786.044922	106856.343750
1785.039062	106427.101562
1784.034180	106592.382812
1783.028320	106797.390625
1782.023438	106965.023438
1781.017578	106958.601562
1780.011719	107155.968750
1779.004883	106456.257812
1777.999023	106705.804688
1776.992188	106557.835938
1775.985352	106941.367188
1774.978516	106803.335938
1773.971680	107015.382812
1772.964844	107061.054688
1771.957031	107193.562500
1770.950195	106646.156250
1769.942383	106930.015625
1768.934570	106509.343750
1767.925781	106282.242188
1766.917969	106680.054688
1765.909180	106272.031250
1764.900391	106986.960938
1763.891602	106725.226562
1762.882812	106384.296875
1761.874023	106727.218750
1760.864258	106824.804688
1759.854492	106389.921875
1758.844727	107165.945312
1757.834961	106758.375000
1756.825195	106482.132812
1755.815430	107096.859375
1754.804688	106459.398438
1753.793945	105953.273438
1752.783203	106486.140625
1751.772461	106672.601562
1750.760742	107091.406250
1749.750000	106187.507812
1748.738281	107043.718750
1747.726562	106429.265625
1746.714844	106408.007812
1745.703125	106292.882812
1744.690430	106350.679688
1743.678711	106504.765625
1742.666016	106429.171875
1741.653320	106131.429688
1740.640625	106650.742188
1739.626953	105689.250000
1738.614258	106746.312500
1737.600586	106554.781250
1736.586914	106321.382812
1735.573242	106423.437500
1734.558594	106483.539062
1733.544922	106652.078125
1732.530273	107012.789062
1731.515625	106875.601562
1730.500977	106371.351562
1729.486328	106734.382812
1728.471680	106870.687500
1727.456055	106605.554688
1726.440430	106951.093750
1725.424805	106609.726562
1724.409180	106118.335938
1723.393555	106677.859375
1722.376953	106924.710938
1721.360352	106111.273438
1720.344727	106377.812500
1719.328125	106371.304688
1718.310547	107338.382812
1717.293945	106579.507812
1716.276367	106673.718750
1715.258789	107040.648438
1714.241211	106382.945312
1713.223633	106794.000000
1712.206055	106605.656250
1711.187500	106392.812500
1710.169922	106621.960938
1709.151367	106826.476562
1708.132812	107423.593750
1707.113281	107036.523438
1706.094727	107000.414062
1705.075195	107226.773438
1704.055664	106808.054688
1703.036133	106592.992188
1702.016602	106878.132812
1700.997070	106746.468750
1699.976562	107278.992188
1698.956055	106686.632812
1697.935547	106978.890625
1696.915039	107038.335938
1695.894531	106598.164062
1694.873047	107032.281250
1693.852539	107028.023438
1692.831055	107346.867188
1691.809570	107278.914062
1690.788086	106829.281250
1689.765625	107287.414062
1688.743164	106877.062500
1687.721680	107205.406250
1686.699219	107408.929688
1685.676758	107558.593750
1684.653320	107510.210938
1683.630859	107124.601562
1682.607422	106929.703125
1681.583984	107306.523438
1680.560547	107619.695312
1679.537109	107839.953125
1678.512695	106770.945312
1677.488281	106979.062500
1676.464844	107289.609375
1675.440430	107046.093750
1674.415039	107166.195312
1673.390625	106854.468750
1672.365234	107442.859375
1671.340820	107043.390625
1670.315430	107212.164062
1669.290039	106171.742188
1668.263672	107427.648438
1667.238281	107257.515625
1666.211914	106631.820312
1665.185547	106681.132812
1664.159180	107368.539062
1663.132812	106950.140625
1662.105469	106626.835938
1661.079102	106802.671875
1660.051758	106467.328125
1659.024414	106307.312500
1657.997070	106495.265625
1656.968750	106641.789062
1655.941406	106754.218750
1654.913086	106710.960938
1653.884766	106512.117188
1652.856445	106614.765625
1651.828125	106476.765625
1650.798828	106540.492188
1649.769531	106628.492188
1648.740234	106599.859375
1647.710938	106554.226562
1646.681641	106826.710938
1645.652344	106327.046875
1644.622070	106572.765625
1643.591797	105845.171875
1642.561523	106326.257812
1641.531250	106258.859375
1640.500977	106244.851562
1639.469727	106509.750000
1638.438477	106665.429688
1637.408203	106224.648438
1636.375977	105941.578125
1635.344727	106060.906250
1634.313477	105727.078125
1633.281250	105766.445312
1632.249023	105737.976562
1631.216797	106208.398438
1630.184570	105656.835938
1629.151367	105434.710938
1628.119141	105844.414062
1627.085938	105474.703125
1626.052734	105117.218750
1625.019531	105485.617188
1623.985352	105314.492188
1622.952148	105726.257812
1621.917969	105190.031250
1620.883789	104903.000000
1619.849609	104971.375000
1618.815430	104810.132812
1617.780273	105405.234375
1616.745117	105618.414062
1615.709961	105077.921875
1614.674805	105262.101562
1613.639648	105074.375000
1612.604492	104611.507812
1611.568359	105432.859375
1610.532227	104941.125000
1609.496094	105043.109375
1608.459961	104940.000000
1607.423828	104844.164062
1606.386719	105604.437500
1605.349609	104939.484375
1604.312500	105053.414062
1603.275391	105295.031250
1602.238281	104659.398438
1601.200195	105088.921875
1600.163086	104458.367188
1599.125000	104531.304688
1598.086914	104702.953125
1597.047852	105546.257812
1596.009766	104502.007812
1594.970703	104577.281250
1593.931641	104943.687500
1592.892578	105461.539062
1591.853516	104302.562500
1590.814453	105065.648438
1589.774414	104421.742188
1588.734375	104845.539062
1587.694336	105093.695312
1586.654297	104786.585938
1585.614258	104566.085938
1584.573242	105059.203125
1583.532227	105146.195312
1582.492188	104642.343750
1581.450195	104849.421875
1580.409180	104804.351562
1579.368164	104339.218750
1578.326172	104447.835938
1577.284180	104765.164062
1576.242188	105259.914062
1575.200195	104586.328125
1574.157227	104833.906250
1573.115234	104896.757812
1572.072266	104609.570312
1571.029297	105350.765625
1569.985352	105461.406250
1568.942383	104961.007812
1567.898438	105167.500000
1566.855469	105084.085938
1565.811523	105053.390625
1564.767578	104785.648438
1563.722656	104802.890625
1562.678711	105140.843750
1561.633789	104358.703125
1560.588867	105342.640625
1559.543945	105170.757812
1558.499023	105087.429688
1557.453125	105279.140625
1556.407227	105272.328125
1555.361328	104811.304688
1554.315430	104613.359375
1553.269531	105067.867188
1552.223633	105574.773438
1551.176758	104430.796875
1550.129883	104710.726562
1549.083008	104739.812500
1548.036133	104816.632812
1546.989258	105182.265625
1545.941406	105037.007812
1544.893555	105180.539062
1543.845703	104784.812500
1542.797852	105577.164062
1541.750000	105086.093750
1540.701172	104971.960938
1539.652344	105148.734375
1538.603516	105029.851562
1537.554688	105032.562500
1536.505859	104568.218750
1535.456055	105614.515625
1534.407227	104916.789062
1533.357422	105514.898438
1532.307617	105484.156250
1531.256836	105529.609375
1530.207031	104513.406250
1529.156250	105201.578125
1528.105469	105694.390625
1527.054688	105266.320312
1526.003906	104966.843750
1524.953125	105414.226562
1523.901367	104701.085938
1522.849609	104461.296875
1521.797852	104929.914062
1520.746094	104540.437500
1519.694336	104433.843750
1518.641602	105146.898438
1517.588867	104531.929688
1516.536133	104430.132812
1515.483398	104492.210938
1514.430664	104620.726562
1513.376953	104896.351562
1512.323242	104794.546875
1511.269531	104590.750000
1510.215820	104745.234375
1509.162109	104162.015625
1508.107422	104449.312500
1507.053711	104845.570312
1505.999023	104046.906250
1504.944336	104490.492188
1503.888672	104080.804688
1502.833984	104057.460938
1501.778320	104723.460938
1500.722656	104565.000000
1499.666992	104321.343750
1498.611328	104170.101562
1497.555664	104097.023438
1496.499023	104137.578125
1495.442383	104272.765625
1494.385742	103750.179688
1493.329102	104136.117188
1492.271484	103389.054688
1491.214844	104198.179688
1490.157227	103491.554688
1489.099609	103144.468750
1488.041992	103523.062500
1486.983398	103837.718750
1485.925781	104100.281250
1484.867188	103720.250000
1483.808594	103944.945312
1482.750000	104256.914062
1481.691406	103579.585938
1480.631836	102883.601562
1479.572266	103825.703125
1478.512695	103672.625000
1477.453125	103781.460938
1476.393555	103097.718750
1475.333008	103086.335938
1474.273438	103138.617188
1473.212891	103115.437500
1472.152344	103104.039062
1471.090820	103351.875000
1470.030273	103340.437500
1468.968750	103072.218750
1467.907227	103253.960938
1466.845703	102437.148438
1465.784180	102687.210938
1464.721680	103509.226562
1463.660156	103180.000000
1462.597656	102568.500000
1461.535156	102731.289062
1460.472656	102879.906250
1459.409180	103026.109375
1458.345703	103045.273438
1457.283203	103179.632812
1456.219727	103092.968750
1455.155273	102416.406250
1454.091797	102668.289062
1453.027344	102659.281250
1451.963867	102683.164062
1450.899414	102500.359375
1449.833984	102991.539062
1448.769531	102393.171875
1447.704102	102395.945312
1446.639648	102825.843750
1445.574219	102504.710938
1444.507812	102366.679688
1443.442383	102439.804688
1442.375977	102168.140625
1441.310547	102229.546875
1440.244141	102272.164062
1439.177734	102396.796875
1438.110352	102441.710938
1437.043945	102036.710938
1435.976562	102093.375000
1434.909180	101782.273438
1433.841797	101953.703125
1432.773438	102698.726562
1431.706055	102460.234375
1430.637695	101915.210938
1429.569336	101590.359375
1428.500977	102026.039062
1427.432617	102045.156250
1426.363281	102150.804688
1425.294922	102953.289062
1424.225586	102217.015625
1423.156250	101717.101562
1422.085938	101768.960938
1421.016602	101395.484375
1419.946289	101202.046875
1418.875977	101999.140625
1417.805664	102097.601562
1416.735352	101766.359375
1415.664062	101603.328125
1414.593750	101736.812500
1413.522461	101816.562500
1412.451172	102052.625000
1411.379883	101891.976562
1410.307617	102048.617188
1409.235352	102123.578125
1408.164062	102056.257812
1407.090820	101762.820312
1406.018555	102145.460938
1404.946289	101439.593750
1403.873047	101982.929688
1402.799805	102209.218750
1401.726562	102444.742188
1400.653320	102708.125000
1399.580078	102424.218750
1398.505859	102275.437500
1397.431641	102513.093750
1396.357422	102080.421875
1395.283203	101913.156250
1394.208008	101341.156250
1393.133789	101315.960938
1392.058594	101423.320312
1390.983398	101491.109375
1389.908203	101049.765625
1388.832031	102079.835938
1387.756836	100655.546875
1386.680664	101248.507812
1385.604492	100956.179688
1384.528320	100794.015625
1383.451172	101133.500000
1382.375000	100927.242188
1381.297852	101382.640625
1380.220703	100932.703125
1379.143555	100281.046875
1378.065430	100771.101562
1376.988281	100639.304688
1375.910156	100948.203125
1374.832031	101145.687500
1373.753906	100844.640625
1372.674805	101292.406250
1371.596680	100759.664062
1370.517578	101038.125000
1369.438477	101413.789062
1368.359375	100603.343750
1367.279297	100467.117188
1366.200195	100745.406250
1365.120117	100208.687500
1364.040039	100484.609375
1362.959961	100318.398438
1361.878906	100325.781250
1360.798828	100548.312500
1359.717773	99699.828125
1358.636719	99954.757812
1357.555664	99823.453125
1356.473633	100161.484375
1355.392578	99905.367188
1354.310547	100037.578125
1353.228516	99998.757812
1352.146484	99588.031250
1351.063477	99854.171875
1349.981445	99693.000000
1348.898438	99748.921875
1347.815430	99941.007812
1346.732422	99712.968750
1345.649414	99309.625000
1344.565430	99476.296875
1343.481445	99843.593750
1342.397461	99844.046875
1341.313477	100132.734375
1340.229492	99701.992188
1339.144531	100198.054688
1338.059570	99246.585938
1336.974609	99242.515625
1335.889648	98994.234375
1334.804688	99911.570312
1333.718750	100066.281250
1332.632812	99311.398438
1331.546875	99659.531250
1330.460938	99977.609375
1329.375000	99400.343750
1328.288086	99225.945312
1327.201172	99247.156250
1326.114258	99148.742188
1325.027344	99284.929688
1323.940430	98970.406250
1322.852539	99306.570312
1321.764648	99536.882812
1320.676758	99505.132812
1319.588867	99535.421875
1318.500977	99471.507812
1317.412109	99069.984375
1316.324219	99185.289062
1315.235352	98946.976562
1314.145508	99004.859375
1313.056641	98610.585938
1311.966797	99058.609375
1310.876953	99472.046875
1309.787109	98559.468750
1308.697266	98305.437500
1307.607422	98808.210938
1306.516602	98428.125000
1305.425781	97947.312500
1304.334961	98885.312500
1303.244141	98645.179688
1302.153320	98134.796875
1301.061523	98190.359375
1299.969727	98062.695312
1298.877930	98814.328125
1297.786133	97940.257812
1296.694336	98238.437500
1295.601562	98488.437500
1294.508789	98550.718750
1293.416016	98576.375000
1292.323242	98178.867188
1291.230469	97664.875000
1290.136719	98026.765625
1289.042969	97627.273438
1287.949219	97936.468750
1286.855469	97719.953125
1285.760742	97999.304688
1284.666992	98187.179688
1283.572266	97518.492188
1282.477539	97726.929688
1281.381836	97793.726562
1280.287109	97595.703125
1279.191406	97331.562500
1278.095703	97850.203125
1277.000000	97914.632812
1275.904297	97317.523438
1274.808594	97233.781250
1273.711914	98194.414062
1272.615234	97554.250000
1271.518555	97224.320312
1270.421875	97234.070312
1269.324219	97239.265625
1268.226562	97315.070312
1267.129883	96718.898438
1266.031250	96646.734375
1264.933594	96408.382812
1263.835938	96614.031250
1262.737305	97003.960938
1261.638672	96831.656250
1260.540039	96952.914062
1259.441406	96994.507812
1258.341797	96879.140625
1257.242188	97218.625000
1256.142578	96684.898438
1255.042969	96230.929688
1253.943359	96199.859375
1252.842773	96491.484375
1251.743164	95962.804688
1250.642578	96540.578125
1249.541016	96502.648438
1248.440430	96319.398438
1247.338867	96676.554688
1246.238281	96184.617188
1245.136719	96092.296875
1244.034180	95661.898438
1242.932617	95912.273438
1241.831055	96153.476562
1240.728516	96151.929688
1239.625977	96173.046875
1238.522461	95400.679688
1237.419922	96154.046875
1236.316406	96041.437500
1235.213867	96017.226562
1234.110352	95698.515625
1233.005859	95703.812500
1231.902344	95598.140625
1230.797852	95929.492188
1229.693359	95814.750000
1228.588867	96376.796875
1227.484375	95130.523438
1226.379883	95794.304688
1225.274414	96233.875000
1224.168945	95399.937500
1223.063477	95690.171875
1221.958008	95731.593750
1220.851562	95617.023438
1219.746094	95389.484375
1218.639648	96307.679688
1217.533203	96193.054688
1216.425781	95775.781250
1215.319336	95819.375000
1214.211914	95876.500000
1213.104492	95698.804688
1211.997070	95758.179688
1210.889648	95797.218750
1209.781250	95865.570312
1208.672852	95590.984375
1207.564453	95593.929688
1206.456055	95427.734375
1205.347656	95818.515625
1204.238281	95045.906250
1203.128906	95456.898438
1202.019531	95520.687500
1200.910156	95766.953125
1199.800781	95569.343750
1198.690430	95698.382812
1197.580078	95399.507812
1196.469727	95409.195312
1195.359375	95562.945312
1194.249023	95923.695312
1193.137695	95096.171875
1192.026367	95634.609375
1190.915039	95725.203125
1189.803711	96033.914062
1188.691406	94984.343750
1187.580078	95668.523438
1186.467773	95651.132812
1185.355469	95289.890625
1184.242188	95310.773438
1183.129883	95318.156250
1182.016602	96033.078125
1180.903320	95573.203125
1179.790039	95355.992188
1178.676758	95551.921875
1177.562500	95586.171875
1176.449219	94704.789062
1175.334961	95066.757812
1174.219727	95087.601562
1173.105469	94850.500000
1171.990234	95153.929688
1170.875977	94874.296875
1169.760742	95193.289062
1168.644531	95350.789062
1167.529297	95447.726562
1166.413086	94780.625000
1165.297852	95715.398438
1164.181641	94423.625000
1163.064453	95219.281250
1161.948242	94601.945312
1160.831055	94542.195312
1159.713867	95001.687500
1158.596680	94389.187500
1157.479492	94933.546875
1156.362305	94448.773438
1155.244141	94474.070312
1154.125977	94655.867188
1153.007812	94417.312500
1151.888672	94493.992188
1150.770508	94148.281250
1149.651367	94104.320312
1148.532227	93823.578125
1147.413086	94087.914062
1146.293945	94515.171875
1145.173828	94002.289062
1144.053711	94333.406250
1142.933594	94084.101562
1141.813477	93759.007812
1140.693359	93962.804688
1139.572266	93604.390625
1138.451172	94267.570312
1137.330078	94096.531250
1136.208984	93947.843750
1135.086914	93478.218750
1133.965820	93775.421875
1132.843750	93700.390625
1131.721680	93144.171875
1130.599609	93149.468750
1129.476562	93413.093750
1128.353516	93367.117188
1127.230469	93606.109375
1126.107422	92765.484375
1124.984375	93543.046875
1123.860352	93036.484375
1122.737305	92870.468750
1121.613281	93171.585938
1120.488281	93410.328125
1119.364258	93017.539062
1118.239258	93309.570312
1117.115234	92799.132812
1115.990234	93146.640625
1114.864258	93036.328125
1113.739258	92428.476562
1112.613281	92964.625000
1111.487305	93169.718750
1110.361328	93605.625000
1109.235352	93286.656250
1108.108398	93245.218750
1106.982422	92520.359375
1105.855469	92348.171875
1104.728516	92695.085938
1103.600586	92471.921875
1102.473633	92922.890625
1101.345703	92881.539062
1100.217773	92882.312500
1099.089844	92781.140625
1097.960938	92832.882812
1096.833008	93309.937500
1095.704102	92708.164062
1094.575195	92766.523438
1093.446289	92607.882812
1092.316406	92728.210938
1091.187500	92786.523438
1090.057617	91822.468750
1088.927734	92858.820312
1087.796875	92910.429688
1086.666992	93335.781250
1085.536133	92474.031250
1084.405273	93208.820312
1083.274414	93081.257812
1082.143555	92984.687500
1081.011719	92600.898438
1079.879883	92641.406250
1078.748047	92432.304688
1077.616211	92077.523438
1076.484375	92736.343750
1075.351562	92547.195312
1074.218750	92786.304688
1073.085938	92162.468750
1071.953125	92348.609375
1070.820312	92781.742188
1069.686523	91975.171875
1068.552734	92783.085938
1067.418945	92457.453125
1066.284180	92083.429688
1065.150391	92624.187500
1064.015625	93305.773438
1062.880859	92940.609375
1061.746094	92936.820312
1060.611328	91840.656250
1059.475586	92640.781250
1058.339844	92280.382812
1057.204102	92151.234375
1056.068359	92506.296875
1054.932617	92084.500000
1053.795898	92320.640625
1052.659180	92811.835938
1051.522461	92322.031250
1050.385742	92445.851562
1049.248047	92220.085938
1048.110352	92275.726562
1046.972656	91931.406250
1045.834961	92371.570312
1044.697266	91888.953125
1043.558594	91639.312500
1042.419922	92178.093750
1041.281250	91737.476562
1040.142578	92291.406250
1039.003906	92028.687500
1037.864258	92145.687500
1036.724609	91843.593750
1035.584961	91679.804688
1034.445312	91757.312500
1033.304688	91694.453125
1032.165039	92361.648438
1031.024414	92250.468750
1029.883789	91942.093750
1028.742188	91638.210938
1027.601562	91803.242188
1026.459961	91725.085938
1025.318359	91992.953125
1024.176758	91476.882812
1023.034180	91692.156250
1021.892578	90990.289062
1020.750000	91564.445312
1019.607422	91764.250000
1018.463867	92023.046875
1017.321289	91498.765625
1016.177734	91372.656250
1015.034180	91257.515625
1013.890625	92077.968750
1012.747070	91724.515625
1011.602539	91126.453125
1010.458008	91140.320312
1009.313477	91235.000000
1008.168945	91329.640625
1007.024414	91841.281250
1005.878906	91355.070312
1004.733398	90895.218750
1003.587891	91515.765625
1002.442383	91400.781250
1001.295898	90914.992188
1000.149414	91000.812500
999.002930	91023.359375
997.856445	91063.335938
996.709961	91362.703125
995.562500	91295.796875
994.415039	91050.234375
993.267578	90765.539062
992.120117	90818.578125
990.972656	90795.359375
989.824219	91492.898438
988.675781	91060.273438
987.527344	91093.609375
986.378906	90733.031250
985.229492	90827.328125
984.080078	91548.125000
982.930664	91120.218750
981.781250	90970.820312
980.631836	90878.007812
979.481445	91000.437500
978.331055	90888.078125
977.180664	91175.609375
976.030273	91169.718750
974.879883	90942.250000
973.728516	90877.750000
972.577148	91015.218750
971.425781	91170.000000
970.273438	90877.562500
969.122070	91158.187500
967.969727	91152.273438
966.817383	91376.328125
965.665039	90958.242188
964.511719	90869.945312
963.359375	91219.679688
962.206055	91350.312500
961.052734	90811.148438
959.898438	91110.835938
958.745117	91263.078125
957.590820	91452.085938
956.436523	91339.960938
955.282227	91130.429688
954.127930	90771.578125
952.972656	90867.437500
951.817383	90913.484375
950.662109	90896.750000
949.506836	90903.820312
948.350586	90796.234375
947.195312	91045.539062
946.039062	90844.984375
944.882812	90994.726562
943.725586	90642.937500
942.569336	91350.218750
941.412109	90892.617188
940.254883	91040.062500
939.097656	90718.750000
937.939453	90207.515625
936.782227	90579.539062
935.624023	90357.781250
934.465820	90302.289062
933.306641	89968.437500
932.148438	90353.164062
930.989258	90314.945312
929.830078	90705.929688
928.670898	90033.695312
927.510742	90213.296875
926.351562	90403.601562
925.191406	89766.257812
924.031250	90363.820312
922.871094	90476.429688
921.709961	90349.898438
920.548828	90906.093750
919.387695	90439.328125
918.226562	89858.625000
917.065430	89704.312500
915.903320	90025.632812
914.741211	90084.335938
913.579102	90119.351562
912.416992	89962.929688
911.254883	90178.585938
910.091797	89802.906250
908.928711	89848.679688
907.765625	89636.531250
906.601562	88986.101562
905.438477	89852.679688
904.274414	89666.406250
903.110352	89982.742188
901.946289	89339.156250
900.781250	89344.140625
899.617188	89782.695312
898.452148	89806.898438
897.287109	89056.523438
896.121094	89052.953125
894.956055	89304.625000
893.790039	89030.804688
892.624023	89074.406250
891.458008	89420.234375
890.291016	88962.218750
889.125000	89607.937500
887.958008	88967.929688
886.791016	89009.335938
885.623047	88800.148438
884.456055	88565.343750
883.288086	89120.601562
882.120117	89403.804688
880.952148	88854.414062
879.783203	89139.695312
878.615234	88765.960938
877.446289	88905.703125
876.277344	89068.914062
875.107422	89298.335938
873.938477	88922.703125
872.768555	89109.312500
871.598633	89597.164062
870.428711	88856.320312
869.257812	89012.921875
868.087891	89340.328125
866.916992	88847.625000
865.746094	88890.984375
864.575195	89333.476562
863.403320	89071.531250
862.231445	89272.710938
861.059570	88981.000000
859.887695	89090.390625
858.715820	89410.859375
857.542969	89441.234375
856.370117	89249.882812
855.197266	97965.742188
854.024414	90891.843750
852.850586	90101.617188
851.676758	90623.890625
850.503906	91459.062500
849.329102	91216.414062
848.155273	89990.242188
846.980469	97860.226562
845.805664	89261.000000
844.630859	89580.687500
843.456055	89644.953125
842.280273	89719.820312
841.105469	89365.070312
839.929688	89756.773438
838.753906	89563.710938
837.577148	89674.656250
836.400391	89532.671875
835.224609	89747.687500
834.046875	89008.804688
832.870117	89748.437500
831.693359	89436.648438
830.515625	89301.187500
829.337891	89694.335938
828.160156	90042.765625
826.981445	89612.304688
825.803711	89879.992188
824.625000	89941.828125
823.446289	89076.851562
822.266602	89490.781250
821.087891	89287.640625
819.908203	89858.226562
818.728516	89688.992188
817.548828	90136.390625
816.368164	89965.039062
815.188477	89725.968750
814.007812	89719.921875
812.827148	89885.375000
811.645508	90692.164062
810.464844	90072.164062
809.283203	89989.859375
808.101562	89351.171875
806.919922	90311.859375
805.737305	89497.796875
804.554688	89889.296875
803.373047	89969.875000
802.189453	89872.867188
801.006836	89587.804688
799.823242	89681.054688
798.640625	89670.757812
797.457031	89706.921875
796.272461	89890.898438
795.088867	89819.320312
793.904297	89711.882812
792.719727	89631.914062
791.535156	89855.843750
790.350586	89341.257812
789.165039	89980.695312
787.979492	89769.968750
786.793945	89443.335938
785.608398	89745.070312
784.421875	89471.257812
783.236328	89092.164062
782.049805	89202.039062
780.862305	89370.867188
779.675781	89501.703125
778.488281	89678.828125
777.300781	89782.179688
776.113281	89710.773438
774.925781	89376.296875
773.737305	89260.796875
772.549805	88913.898438
771.361328	89358.054688
770.171875	89614.859375
768.983398	89347.976562
767.793945	89228.359375
766.604492	88654.757812
765.415039	89325.500000
764.225586	89180.726562
763.035156	89426.750000
761.845703	89208.484375
760.655273	89347.304688
759.463867	88938.062500
758.273438	89307.789062
757.082031	89129.570312
755.890625	89308.156250
754.699219	89071.250000
753.507812	88939.320312
752.315430	89012.960938
751.123047	89325.617188
749.930664	89082.578125
748.738281	88931.859375
747.544922	88900.648438
746.351562	89210.984375
745.158203	89523.289062
743.964844	89424.945312
742.771484	89412.500000
741.577148	89347.703125
740.382812	89366.664062
739.188477	89167.937500
737.994141	89165.992188
736.798828	89080.351562
735.603516	89053.312500
734.408203	89590.968750
733.212891	89126.804688
732.016602	89200.109375
730.821289	88773.812500
729.625000	89028.968750
728.428711	89478.343750
727.231445	89158.765625
726.035156	89008.484375
724.837891	89635.109375
723.640625	88754.007812
722.442383	89017.210938
721.245117	89395.101562
720.046875	89090.468750
718.848633	89219.921875
717.650391	89313.851562
716.451172	88652.765625
715.252930	89111.671875
714.053711	89291.039062
712.854492	89426.562500
711.654297	88859.710938
710.455078	89178.617188
709.254883	89105.742188
708.054688	89497.382812
706.853516	89157.906250
705.653320	89409.882812
704.452148	88958.132812
703.250977	89072.664062
702.049805	89397.335938
700.847656	89185.093750
699.646484	89615.695312
698.444336	89241.257812
697.242188	89230.851562
696.039062	89420.031250
694.836914	89259.921875
693.633789	89027.140625
692.430664	89074.945312
691.227539	89149.734375
690.023438	89303.414062
688.819336	88823.656250
687.615234	89162.125000
686.411133	89224.367188
685.207031	89184.882812
684.001953	89041.656250
682.796875	89143.296875
681.591797	89159.843750
680.386719	89613.992188
679.180664	89750.710938
677.974609	89437.484375
676.768555	89188.632812
675.562500	89254.875000
674.356445	89385.320312
673.149414	89762.242188
671.942383	89494.851562
670.735352	89260.695312
669.527344	89523.539062
668.320312	88761.585938
667.112305	88983.015625
665.904297	89340.937500
664.695312	89055.289062
663.487305	89280.671875
662.278320	89061.304688
661.069336	89292.796875
659.860352	89106.585938
658.650391	89515.734375
657.440430	89122.875000
656.230469	88699.171875
655.020508	89608.085938
653.810547	88527.625000
652.599609	88401.625000
651.388672	88950.820312
650.177734	88855.750000
648.966797	88946.453125
647.754883	88826.648438
646.542969	88861.609375
645.331055	88636.656250
644.119141	88651.015625
642.906250	88688.039062
641.694336	88525.078125
640.481445	88863.046875
639.267578	88856.726562
638.054688	88922.515625
636.840820	88465.031250
635.626953	88617.367188
634.413086	88244.523438
633.199219	87921.234375
631.984375	88304.132812
630.769531	88310.242188
629.554688	88546.820312
628.339844	88129.054688
627.124023	88923.007812
625.909180	88225.625000
624.693359	87851.328125
623.476562	88311.828125
622.260742	88480.281250
621.043945	87824.593750
619.827148	88116.343750
618.610352	88301.164062
617.393555	87779.367188
616.175781	87822.476562
614.958008	88189.960938
613.740234	87986.632812
612.522461	88027.617188
611.303711	87881.851562
610.084961	87883.851562
608.866211	87924.812500
607.647461	87893.984375
606.427734	87393.609375
605.208984	88014.789062
603.989258	87840.468750
602.768555	87977.703125
601.548828	88153.804688
600.328125	87502.242188
599.107422	88085.937500
597.886719	87745.875000
596.666016	88486.945312
595.444336	87993.414062
594.222656	88040.351562
593.000977	88023.843750
591.779297	88432.867188
590.556641	88154.460938
589.334961	87737.093750
588.112305	88301.320312
586.888672	88773.343750
585.666016	88147.601562
584.442383	88343.593750
583.218750	87693.640625
581.995117	88367.632812
580.770508	88665.578125
579.546875	87807.640625
578.322266	88164.773438
577.097656	88321.726562
575.872070	88207.187500
574.647461	88904.789062
573.421875	88061.867188
572.196289	88526.703125
570.969727	87996.171875
569.744141	88128.492188
568.517578	88256.679688
567.291016	88227.875000
566.064453	88211.304688
564.836914	88742.796875
563.609375	87738.179688
562.381836	88216.593750
561.154297	88336.453125
559.926758	88222.132812
558.698242	88333.796875
557.469727	87952.914062
556.241211	88082.890625
555.012695	88139.570312
553.783203	88021.312500
552.553711	87722.101562
551.324219	87725.945312
550.094727	87953.390625
548.864258	88123.843750
547.633789	87755.734375
546.403320	87981.000000
545.172852	88035.554688
543.941406	87042.140625
542.710938	87354.718750
541.479492	87391.070312
540.247070	87390.875000
539.015625	87226.296875
537.783203	87272.789062
536.550781	86874.992188
535.318359	87110.148438
534.085938	87331.015625
532.852539	86811.781250
531.619141	87484.648438
530.385742	86872.343750
529.152344	86606.757812
527.917969	86987.539062
526.683594	86557.960938
525.449219	86211.562500
524.214844	86598.265625
522.979492	86456.453125
521.744141	86529.234375
520.508789	86541.281250
519.273438	86887.148438
518.037109	86267.968750
516.801758	86284.085938
515.565430	86267.835938
514.328125	86075.695312
513.091797	86124.171875
511.854492	86111.992188
510.617188	86946.445312
509.379883	86404.812500
508.142578	85954.265625
506.904297	86148.093750
505.666016	86214.648438
504.427734	85996.531250
503.189453	86087.296875
501.950195	85998.429688
500.710938	85534.328125
499.471680	85844.984375
498.232422	86054.687500
496.992188	86119.125000
495.751953	86209.742188
494.511719	85860.906250
493.271484	86314.273438
492.030273	85874.875000
490.790039	86233.382812
489.548828	86084.187500
488.306641	85926.992188
487.065430	85838.304688
485.823242	86146.203125
484.581055	85828.062500
483.338867	85757.546875
482.095703	85845.984375
480.853516	85715.132812
479.610352	86237.937500
478.367188	86625.820312
477.123047	86054.617188
475.879883	85815.273438
474.635742	86164.828125
473.391602	86524.281250
472.146484	85740.585938
470.902344	86230.523438
469.657227	86254.414062
468.412109	85973.109375
467.166016	86516.921875
465.920898	86014.906250
464.674805	85755.875000
463.428711	85416.687500
462.182617	86102.585938
460.935547	85789.523438
459.688477	85775.328125
458.441406	85729.054688
457.194336	86053.585938
455.946289	85812.898438
454.699219	85456.085938
453.451172	85882.632812
452.202148	85215.507812
450.954102	85796.117188
449.705078	85926.054688
448.456055	88573.976562
447.207031	85897.578125
445.958008	85551.203125
444.708008	85178.945312
443.458008	85358.851562
442.208008	84996.765625
440.957031	86900.078125
439.707031	87751.203125
438.456055	86753.296875
437.205078	85222.242188
435.953125	84538.843750
434.702148	84293.148438
433.450195	84506.875000
432.198242	84570.757812
430.945312	84285.257812
429.693359	83918.023438
428.440430	84361.132812
427.187500	84239.421875
425.934570	83898.328125
424.680664	84359.125000
423.426758	83888.515625
422.172852	83826.789062
420.918945	83994.304688
419.664062	83516.046875
418.410156	83745.320312
417.155273	83641.812500
415.899414	83649.882812
414.644531	83829.210938
413.388672	83902.929688
412.132812	83618.304688
410.876953	83586.546875
409.620117	83747.828125
408.364258	83379.812500
407.107422	83371.976562
405.849609	83984.648438
404.592773	83598.890625
403.334961	83539.320312
402.077148	83449.953125
400.819336	83795.828125
399.561523	82881.867188
398.302734	83553.507812
397.043945	83289.398438
395.785156	83793.890625
394.525391	83369.015625
393.266602	83934.828125
392.006836	83299.710938
390.747070	83297.812500
389.486328	83756.171875
388.226562	84226.257812
386.965820	83795.812500
385.705078	83202.937500
384.443359	82986.937500
383.182617	83393.367188
381.920898	83466.726562
380.659180	82941.710938
379.396484	82824.953125
378.134766	82797.359375
376.872070	83013.335938
375.609375	83500.445312
374.346680	83150.085938
373.083008	82653.414062
371.819336	82855.375000
370.555664	82618.093750
369.291992	82580.656250
368.027344	82418.648438
366.762695	82580.945312
365.498047	82590.968750
364.233398	82419.156250
362.968750	81956.937500
361.703125	81905.812500
360.437500	82200.375000
359.170898	81679.203125
357.905273	81807.828125
356.638672	81815.984375
355.372070	81760.968750
354.105469	81512.585938
352.837891	81335.312500
351.571289	81728.203125
350.303711	81801.429688
349.035156	80932.062500
347.767578	81506.164062
346.499023	81327.078125
345.230469	81242.648438
343.961914	81597.640625
342.692383	81215.710938
341.423828	81089.976562
340.154297	80733.882812
338.883789	81183.195312
337.614258	80661.859375
336.343750	80534.335938
335.073242	80656.773438
333.802734	80550.937500
332.532227	80848.375000
331.260742	80799.570312
329.989258	80269.039062
328.717773	79652.210938
327.445312	80480.273438
326.173828	80394.218750
324.901367	80105.828125
323.627930	80402.929688
322.355469	79900.554688
321.082031	80205.421875
319.808594	79952.609375
318.535156	80008.062500
317.261719	80098.812500
315.987305	80148.320312
314.712891	79624.960938
313.438477	79839.296875
312.164062	79739.773438
310.888672	79328.539062
309.613281	79907.406250
308.337891	79521.765625
307.061523	79965.164062
305.786133	79324.960938
304.509766	79562.539062
303.233398	79719.734375
301.956055	79252.234375
300.678711	79548.414062
299.402344	79224.007812
298.124023	79017.140625
296.846680	78554.031250
295.568359	79135.703125
294.290039	78780.320312
293.011719	78432.882812
291.733398	78298.679688
290.454102	78463.585938
289.174805	78208.250000
287.895508	78193.343750
286.616211	78293.703125
285.335938	78614.734375
284.055664	77545.218750
282.775391	77733.492188
281.494141	77993.914062
280.213867	77733.125000
278.932617	77714.398438
277.651367	77637.148438
276.369141	77376.570312
275.087891	77430.070312
273.805664	76617.812500
272.523438	76848.828125
271.240234	77183.062500
269.958008	76552.539062
268.674805	76574.953125
267.390625	76714.234375
266.107422	76571.054688
264.823242	76254.617188
263.539062	76257.585938
262.254883	76344.250000
260.970703	76214.859375
259.685547	75910.390625
258.400391	76088.500000
257.115234	76426.023438
255.830078	75824.148438
254.543945	75461.640625
253.257812	75441.398438
251.971680	75936.203125
250.684570	75342.640625
249.398438	76060.687500
248.111328	75150.703125
246.824219	75798.585938
245.536133	75440.429688
244.248047	75367.781250
242.960938	75335.914062
241.671875	75189.562500
240.383789	75070.421875
239.094727	75327.656250
237.805664	75010.703125
236.516602	74742.351562
235.227539	74881.226562
233.937500	74380.390625
232.647461	74213.070312
231.357422	74706.539062
230.066406	74118.835938
228.775391	74129.843750
227.485352	73931.703125
226.193359	74078.265625
224.902344	74120.234375
223.610352	73939.617188
222.318359	73681.664062
221.026367	73626.945312
219.733398	73680.562500
218.441406	73484.679688
217.148438	73244.398438
215.854492	73048.671875
214.561523	73139.062500
213.267578	72755.976562
211.973633	72794.218750
210.679688	73070.046875
209.384766	72783.742188
208.090820	72385.554688
206.795898	72524.218750
205.500000	71792.296875
204.205078	71587.500000
202.909180	71896.015625
201.613281	71253.359375
200.317383	71268.648438
199.020508	71602.109375
197.723633	71384.031250
196.426758	71341.445312
195.129883	71312.367188
193.832031	71331.460938
192.534180	70639.664062
191.236328	70697.398438
189.938477	70562.531250
188.639648	70527.835938
187.341797	70564.375000
186.042969	70192.859375
184.743164	69990.828125
183.444336	70339.117188
182.144531	69935.156250
180.844727	69890.976562
179.543945	69919.882812
178.244141	70314.039062
176.943359	69777.750000
175.642578	69918.117188
174.340820	69793.273438
173.040039	69566.656250
171.738281	69609.015625
170.435547	69386.359375
169.133789	69342.335938
167.831055	69455.726562
166.528320	69390.585938
165.225586	69218.015625
163.922852	69548.132812
162.619141	69114.742188
161.315430	68675.757812
160.011719	68451.671875
158.708008	68218.093750
157.403320	68233.750000
156.098633	68314.546875
154.793945	68044.710938
153.488281	67608.335938
152.182617	67501.515625
150.876953	67119.015625
149.571289	67077.414062
148.265625	67072.195312
146.958984	67417.164062
145.652344	66872.328125
144.345703	66754.281250
143.038086	66657.312500
141.730469	66757.328125
140.422852	66744.500000
139.115234	66496.578125
137.806641	66535.398438
136.498047	65869.164062
135.189453	65478.265625
133.880859	64997.742188
132.571289	64748.464844
131.262695	64010.519531
129.952148	62843.359375
128.642578	62241.558594
127.332031	61605.640625
126.021484	60575.054688
124.710938	59819.531250
123.400391	58413.996094
122.088867	57502.824219
120.777344	56401.371094
119.465820	54604.675781
