#Wave		#Intensity
1999.057617	23916.402344
1998.089844	24177.318359
1997.122070	24374.568359
1996.154297	24388.398438
1995.186523	24451.279297
1994.217773	24206.935547
1993.249023	24313.701172
1992.280273	24069.464844
1991.311523	24336.187500
1990.341797	24355.162109
1989.373047	24368.970703
1988.403320	24297.671875
1987.433594	24564.166016
1986.463867	24405.207031
1985.494141	24534.978516
1984.524414	24605.433594
1983.553711	24183.738281
1982.583008	24313.478516
1981.613281	24340.146484
1980.641602	24423.458984
1979.670898	24341.955078
1978.700195	24402.066406
1977.728516	24336.037109
1976.756836	24522.224609
1975.785156	24633.730469
1974.813477	24426.203125
1973.841797	24501.675781
1972.869141	24721.132812
1971.897461	24523.978516
1970.924805	24784.486328
1969.952148	24656.787109
1968.979492	24621.644531
1968.005859	24822.898438
1967.033203	24687.550781
1966.059570	24475.193359
1965.085938	24571.074219
1964.112305	24779.894531
1963.138672	24444.406250
1962.165039	24555.640625
1961.190430	24689.931641
1960.215820	24916.542969
1959.242188	24658.220703
1958.266602	24836.023438
1957.291992	24667.560547
1956.317383	24637.613281
1955.341797	24974.265625
1954.366211	24836.621094
1953.390625	24868.160156
1952.415039	24733.142578
1951.439453	24657.091797
1950.463867	24683.521484
1949.487305	24497.386719
1948.510742	24505.908203
1947.534180	24688.505859
1946.557617	24640.679688
1945.580078	24940.906250
1944.603516	24634.626953
1943.625977	24865.677734
1942.648438	24736.001953
1941.670898	24821.183594
1940.693359	24538.148438
1939.715820	24935.216797
1938.737305	24501.455078
1937.758789	24949.498047
1936.780273	24947.693359
1935.801758	24843.701172
1934.823242	24709.093750
1933.844727	24998.453125
1932.865234	24600.876953
1931.885742	24882.492188
1930.906250	24502.939453
1929.926758	24758.953125
1928.947266	25048.044922
1927.966797	25033.460938
1926.986328	25136.207031
1926.006836	25205.765625
1925.026367	25099.369141
1924.044922	24740.628906
1923.064453	24764.337891
1922.083008	24821.167969
1921.102539	24786.250000
1920.121094	24644.349609
1919.139648	24764.841797
1918.157227	24920.943359
1917.175781	24949.681641
1916.193359	24634.740234
1915.211914	25190.384766
1914.229492	24888.234375
1913.246094	25107.783203
1912.263672	25088.125000
1911.281250	24753.082031
1910.297852	24929.302734
1909.314453	24787.638672
1908.331055	24745.167969
1907.347656	25056.005859
1906.363281	24949.968750
1905.379883	25133.619141
1904.395508	25355.310547
1903.411133	25234.035156
1902.426758	25188.984375
1901.442383	24742.783203
1900.458008	25428.941406
1899.472656	24817.875000
1898.487305	24996.240234
1897.501953	24821.867188
1896.516602	24792.150391
1895.531250	24841.072266
1894.544922	24859.542969
1893.559570	24989.566406
1892.573242	25073.914062
1891.586914	25099.935547
1890.599609	25019.513672
1889.613281	24764.294922
1888.625977	24815.685547
1887.639648	25097.542969
1886.652344	25088.080078
1885.665039	25187.492188
1884.676758	24886.894531
1883.689453	25140.697266
1882.701172	25037.597656
1881.713867	25106.582031
1880.725586	25198.308594
1879.736328	25112.955078
1878.748047	25020.042969
1877.759766	25147.130859
1876.770508	25398.041016
1875.781250	25173.697266
1874.791992	25250.148438
1873.802734	25073.910156
1872.812500	24983.625000
1871.823242	24842.853516
1870.833008	25189.507812
1869.842773	25167.416016
1868.852539	25006.490234
1867.862305	25287.306641
1866.871094	25504.937500
1865.880859	25429.818359
1864.889648	24938.492188
1863.898438	25007.259766
1862.907227	25277.740234
1861.915039	25333.814453
1860.923828	25301.638672
1859.931641	25445.902344
1858.939453	25340.638672
1857.947266	24895.275391
1856.955078	25445.101562
1855.961914	25440.634766
1854.969727	24987.931641
1853.976562	25446.808594
1852.983398	25311.441406
1851.990234	25344.750000
1850.997070	25144.019531
1850.002930	25109.414062
1849.008789	25426.992188
1848.014648	25447.677734
1847.020508	25267.183594
1846.026367	25446.283203
1845.032227	25333.722656
1844.037109	25236.279297
1843.042969	25395.183594
1842.047852	25162.089844
1841.051758	25441.525391
1840.056641	25180.876953
1839.061523	25500.388672
1838.065430	25478.332031
1837.069336	25599.367188
1836.073242	25466.869141
1835.077148	25382.095703
1834.081055	25332.474609
1833.083984	25368.158203
1832.086914	25331.095703
1831.090820	25537.279297
1830.092773	25522.763672
1829.095703	25187.390625
1828.098633	25380.958984
1827.100586	25198.583984
1826.102539	25457.218750
1825.104492	25505.345703
1824.106445	25733.781250
1823.108398	25286.037109
1822.109375	25539.462891
1821.111328	25349.736328
1820.112305	25608.066406
1819.113281	25601.060547
1818.113281	25346.371094
1817.114258	25832.193359
1816.114258	25760.123047
1815.115234	25610.558594
1814.115234	25441.046875
1813.115234	25479.066406
1812.114258	25791.984375
1811.114258	25532.570312
1810.113281	25672.982422
1809.112305	25506.101562
1808.111328	25524.089844
1807.110352	25267.398438
1806.109375	25797.220703
1805.107422	25602.974609
1804.105469	25698.294922
1803.103516	25706.248047
1802.101562	25813.992188
1801.099609	25717.154297
1800.096680	25393.402344
1799.094727	25558.490234
1798.091797	25563.962891
1797.088867	25826.173828
1796.085938	25507.609375
1795.082031	25567.904297
1794.079102	25722.845703
1793.075195	25593.771484
1792.071289	25746.162109
1791.067383	25806.367188
1790.063477	25754.519531
1789.058594	25782.341797
1788.053711	25956.986328
1787.049805	25658.800781
1786.044922	25721.451172
1785.039062	25269.193359
1784.034180	25580.580078
1783.028320	25446.775391
1782.023438	25598.914062
1781.017578	25527.291016
1780.011719	25681.843750
1779.004883	25714.589844
1777.999023	25660.371094
1776.992188	25568.912109
1775.985352	25624.007812
1774.978516	25554.933594
1773.971680	25726.689453
1772.964844	25662.583984
1771.957031	25556.310547
1770.950195	25856.998047
1769.942383	25331.470703
1768.934570	25768.509766
1767.925781	25642.449219
1766.917969	25598.253906
1765.909180	25650.757812
1764.900391	25623.927734
1763.891602	25433.544922
1762.882812	25880.007812
1761.874023	25726.804688
1760.864258	25692.542969
1759.854492	25784.591797
1758.844727	25473.019531
1757.834961	25688.851562
1756.825195	25662.042969
1755.815430	25506.558594
1754.804688	25578.759766
1753.793945	25636.091797
1752.783203	25490.583984
1751.772461	25691.339844
1750.760742	25978.560547
1749.750000	25533.947266
1748.738281	25321.824219
1747.726562	25680.619141
1746.714844	25661.261719
1745.703125	25832.125000
1744.690430	25511.419922
1743.678711	25563.712891
1742.666016	25783.878906
1741.653320	25836.103516
1740.640625	25594.599609
1739.626953	25427.210938
1738.614258	25627.503906
1737.600586	25682.181641
1736.586914	25571.589844
1735.573242	25599.130859
1734.558594	25708.023438
1733.544922	25651.716797
1732.530273	25903.507812
1731.515625	25741.222656
1730.500977	25576.529297
1729.486328	25441.451172
1728.471680	25653.693359
1727.456055	25577.748047
1726.440430	25848.976562
1725.424805	25504.707031
1724.409180	25623.257812
1723.393555	25837.734375
1722.376953	25537.931641
1721.360352	25796.623047
1720.344727	25649.416016
1719.328125	25482.587891
1718.310547	25716.564453
1717.293945	25768.554688
1716.276367	25899.171875
1715.258789	25626.751953
1714.241211	25769.628906
1713.223633	25659.447266
1712.206055	25591.054688
1711.187500	25544.785156
1710.169922	25937.992188
1709.151367	25766.488281
1708.132812	25607.314453
1707.113281	25919.322266
1706.094727	25622.789062
1705.075195	25500.515625
1704.055664	25981.595703
1703.036133	25793.095703
1702.016602	25786.080078
1700.997070	25798.675781
1699.976562	25982.818359
1698.956055	25667.031250
1697.935547	25760.484375
1696.915039	25853.902344
1695.894531	25873.816406
1694.873047	25915.759766
1693.852539	25563.535156
1692.831055	25678.949219
1691.809570	25657.271484
1690.788086	25819.115234
1689.765625	26179.058594
1688.743164	25592.281250
1687.721680	26079.304688
1686.699219	25974.435547
1685.676758	25982.060547
1684.653320	25838.136719
1683.630859	26112.156250
1682.607422	26078.210938
1681.583984	25885.484375
1680.560547	25878.457031
1679.537109	25995.976562
1678.512695	25783.830078
1677.488281	25945.265625
1676.464844	25786.900391
1675.440430	25879.945312
1674.415039	25804.601562
1673.390625	26065.933594
1672.365234	25936.921875
1671.340820	26032.310547
1670.315430	25893.595703
1669.290039	25630.603516
1668.263672	26133.025391
1667.238281	25779.916016
1666.211914	25826.513672
1665.185547	25838.986328
1664.159180	26026.818359
1663.132812	26117.175781
1662.105469	25866.636719
1661.079102	25786.585938
1660.051758	25682.224609
1659.024414	25784.742188
1657.997070	25921.285156
1656.968750	25758.570312
1655.941406	25681.037109
1654.913086	25866.156250
1653.884766	26012.306641
1652.856445	25674.666016
1651.828125	25662.820312
1650.798828	25784.626953
1649.769531	25592.976562
1648.740234	25622.443359
1647.710938	25591.181641
1646.681641	25926.597656
1645.652344	25562.677734
1644.622070	25696.503906
1643.591797	25920.078125
1642.561523	25638.851562
1641.531250	25631.875000
1640.500977	25826.232422
1639.469727	25603.375000
1638.438477	25921.330078
1637.408203	25691.261719
1636.375977	25773.962891
1635.344727	25558.539062
1634.313477	25469.193359
1633.281250	25917.708984
1632.249023	25588.527344
1631.216797	25777.726562
1630.184570	25591.546875
1629.151367	25795.203125
1628.119141	25374.291016
1627.085938	25839.281250
1626.052734	25568.529297
1625.019531	25503.505859
1623.985352	25794.070312
1622.952148	25586.343750
1621.917969	25427.048828
1620.883789	25456.376953
1619.849609	25700.812500
1618.815430	25425.580078
1617.780273	25428.310547
1616.745117	25844.140625
1615.709961	25312.998047
1614.674805	25646.589844
1613.639648	25289.513672
1612.604492	25386.408203
1611.568359	25541.197266
1610.532227	25944.490234
1609.496094	25575.546875
1608.459961	25684.378906
1607.423828	25424.148438
1606.386719	25904.339844
1605.349609	25644.160156
1604.312500	25241.843750
1603.275391	25613.347656
1602.238281	25632.890625
1601.200195	25375.347656
1600.163086	25611.726562
1599.125000	25298.882812
1598.086914	25414.787109
1597.047852	25405.449219
1596.009766	25391.300781
1594.970703	25331.427734
1593.931641	25435.207031
1592.892578	25644.808594
1591.853516	25476.671875
1590.814453	25303.781250
1589.774414	25441.152344
1588.734375	25588.089844
1587.694336	25612.380859
1586.654297	25480.445312
1585.614258	25502.341797
1584.573242	25548.253906
1583.532227	25406.787109
1582.492188	25685.658203
1581.450195	25630.660156
1580.409180	25566.076172
1579.368164	25328.687500
1578.326172	25458.574219
1577.284180	25446.841797
1576.242188	25559.865234
1575.200195	25639.265625
1574.157227	25838.548828
1573.115234	25766.808594
1572.072266	25891.677734
1571.029297	25733.660156
1569.985352	25542.146484
1568.942383	25535.199219
1567.898438	25413.261719
1566.855469	25612.330078
1565.811523	25830.484375
1564.767578	25406.863281
1563.722656	25658.488281
1562.678711	25752.050781
1561.633789	25536.867188
1560.588867	25460.535156
1559.543945	25886.603516
1558.499023	25724.128906
1557.453125	25690.845703
1556.407227	25839.289062
1555.361328	25870.539062
1554.315430	25715.349609
1553.269531	25796.792969
1552.223633	25569.990234
1551.176758	25467.488281
1550.129883	25532.210938
1549.083008	25623.177734
1548.036133	25771.412109
1546.989258	25506.617188
1545.941406	25762.218750
1544.893555	25714.669922
1543.845703	25731.554688
1542.797852	25707.880859
1541.750000	25832.085938
1540.701172	26039.705078
1539.652344	25744.191406
1538.603516	25699.074219
1537.554688	25970.951172
1536.505859	25863.851562
1535.456055	25937.857422
1534.407227	25671.205078
1533.357422	26007.193359
1532.307617	25709.664062
1531.256836	25771.736328
1530.207031	25928.998047
1529.156250	25507.884766
1528.105469	25332.007812
1527.054688	25722.408203
1526.003906	25501.359375
1524.953125	25663.281250
1523.901367	25582.609375
1522.849609	25689.775391
1521.797852	25654.287109
1520.746094	25704.365234
1519.694336	25730.664062
1518.641602	25550.267578
1517.588867	25595.583984
1516.536133	25624.259766
1515.483398	25698.035156
1514.430664	25655.460938
1513.376953	25809.904297
1512.323242	25722.232422
1511.269531	25570.529297
1510.215820	25748.625000
1509.162109	25637.291016
1508.107422	25547.337891
1507.053711	25566.480469
1505.999023	25571.392578
1504.944336	25566.822266
1503.888672	25716.283203
1502.833984	25633.500000
1501.778320	25605.228516
1500.722656	25503.542969
1499.666992	25382.949219
1498.611328	25811.683594
1497.555664	25378.607422
1496.499023	25454.537109
1495.442383	25352.964844
1494.385742	25466.726562
1493.329102	25518.943359
1492.271484	25363.013672
1491.214844	25680.070312
1490.157227	25654.197266
1489.099609	25630.697266
1488.041992	25694.650391
1486.983398	25397.046875
1485.925781	25817.757812
1484.867188	25498.976562
1483.808594	25791.986328
1482.750000	25355.259766
1481.691406	25525.423828
1480.631836	25369.789062
1479.572266	25572.927734
1478.512695	25419.697266
1477.453125	25386.835938
1476.393555	25495.509766
1475.333008	25323.505859
1474.273438	25686.802734
1473.212891	25368.660156
1472.152344	25093.058594
1471.090820	25571.671875
1470.030273	25340.896484
1468.968750	25272.751953
1467.907227	25494.339844
1466.845703	25266.056641
1465.784180	25313.330078
1464.721680	25398.250000
1463.660156	25607.884766
1462.597656	25233.835938
1461.535156	25384.601562
1460.472656	25241.261719
1459.409180	25105.029297
1458.345703	25105.232422
1457.283203	25357.007812
1456.219727	25364.216797
1455.155273	25169.298828
1454.091797	25143.638672
1453.027344	25082.744141
1451.963867	25336.642578
1450.899414	25456.576172
1449.833984	24956.544922
1448.769531	25609.445312
1447.704102	25172.941406
1446.639648	25241.183594
1445.574219	25281.240234
1444.507812	25598.121094
1443.442383	25061.064453
1442.375977	25246.535156
1441.310547	25506.972656
1440.244141	25457.853516
1439.177734	25207.169922
1438.110352	25031.568359
1437.043945	24987.244141
1435.976562	25036.644531
1434.909180	24997.017578
1433.841797	25069.814453
1432.773438	25175.365234
1431.706055	25189.576172
1430.637695	25353.580078
1429.569336	25316.267578
1428.500977	25300.025391
1427.432617	25215.945312
1426.363281	25148.267578
1425.294922	25464.130859
1424.225586	25190.679688
1423.156250	25415.250000
1422.085938	25469.117188
1421.016602	25060.271484
1419.946289	25473.992188
1418.875977	25048.937500
1417.805664	25119.177734
1416.735352	25175.380859
1415.664062	25285.261719
1414.593750	25346.082031
1413.522461	25262.177734
1412.451172	25203.968750
1411.379883	24940.470703
1410.307617	25271.892578
1409.235352	25092.435547
1408.164062	25286.130859
1407.090820	25353.861328
1406.018555	25209.447266
1404.946289	25272.501953
1403.873047	24981.355469
1402.799805	25142.275391
1401.726562	25177.355469
1400.653320	25121.593750
1399.580078	25256.787109
1398.505859	25422.193359
1397.431641	25426.933594
1396.357422	25315.310547
1395.283203	25057.140625
1394.208008	25396.937500
1393.133789	24808.558594
1392.058594	25380.828125
1390.983398	25262.333984
1389.908203	24976.503906
1388.832031	25088.224609
1387.756836	25262.650391
1386.680664	25079.201172
1385.604492	25063.076172
1384.528320	25244.375000
1383.451172	25235.189453
1382.375000	25214.396484
1381.297852	25137.898438
1380.220703	25103.203125
1379.143555	25119.572266
1378.065430	24987.447266
1376.988281	25140.687500
1375.910156	25124.566406
1374.832031	25027.291016
1373.753906	25282.451172
1372.674805	25145.773438
1371.596680	25104.166016
1370.517578	25319.779297
1369.438477	24879.669922
1368.359375	25021.119141
1367.279297	25225.048828
1366.200195	25188.089844
1365.120117	24986.771484
1364.040039	25093.375000
1362.959961	25065.714844
1361.878906	25054.257812
1360.798828	25003.476562
1359.717773	24971.218750
1358.636719	24760.898438
1357.555664	24983.031250
1356.473633	24520.802734
1355.392578	24955.541016
1354.310547	25089.699219
1353.228516	24976.585938
1352.146484	24925.882812
1351.063477	24854.410156
1349.981445	25103.951172
1348.898438	24910.101562
1347.815430	25032.574219
1346.732422	24903.429688
1345.649414	25030.474609
1344.565430	24972.896484
1343.481445	24774.626953
1342.397461	24687.132812
1341.313477	24576.609375
1340.229492	24772.757812
1339.144531	24641.509766
1338.059570	24773.042969
1336.974609	24579.625000
1335.889648	24817.097656
1334.804688	24789.587891
1333.718750	25155.902344
1332.632812	24845.119141
1331.546875	25077.763672
1330.460938	24909.812500
1329.375000	24746.525391
1328.288086	24847.904297
1327.201172	25006.757812
1326.114258	25121.851562
1325.027344	24864.351562
1323.940430	25119.683594
1322.852539	25200.208984
1321.764648	24784.238281
1320.676758	24947.521484
1319.588867	24892.470703
1318.500977	25007.433594
1317.412109	24729.599609
1316.324219	24814.693359
1315.235352	24936.492188
1314.145508	24796.552734
1313.056641	25037.654297
1311.966797	25044.607422
1310.876953	24877.189453
1309.787109	24553.845703
1308.697266	24503.541016
1307.607422	24861.419922
1306.516602	24847.759766
1305.425781	24698.859375
1304.334961	24637.103516
1303.244141	24726.599609
1302.153320	24877.919922
1301.061523	24396.984375
1299.969727	24784.195312
1298.877930	24607.986328
1297.786133	24770.660156
1296.694336	24921.832031
1295.601562	24812.054688
1294.508789	24665.708984
1293.416016	24771.060547
1292.323242	24729.986328
1291.230469	24853.580078
1290.136719	24668.457031
1289.042969	24451.396484
1287.949219	24760.105469
1286.855469	24684.787109
1285.760742	24739.728516
1284.666992	24575.349609
1283.572266	24573.189453
1282.477539	24274.166016
1281.381836	24443.294922
1280.287109	24493.658203
1279.191406	24861.246094
1278.095703	24297.683594
1277.000000	24503.183594
1275.904297	24603.681641
1274.808594	24409.935547
1273.711914	24448.843750
1272.615234	24583.490234
1271.518555	24740.880859
1270.421875	24481.154297
1269.324219	24467.609375
1268.226562	24485.962891
1267.129883	24495.197266
1266.031250	24467.990234
1264.933594	24454.453125
1263.835938	24456.855469
1262.737305	24479.742188
1261.638672	24168.087891
1260.540039	24345.736328
1259.441406	24389.101562
1258.341797	24316.451172
1257.242188	24105.107422
1256.142578	24398.589844
1255.042969	24548.751953
1253.943359	24362.478516
1252.842773	24008.113281
1251.743164	24315.029297
1250.642578	24283.367188
1249.541016	24646.898438
1248.440430	24494.833984
1247.338867	24381.417969
1246.238281	24399.699219
1245.136719	24386.201172
1244.034180	24188.906250
1242.932617	24170.910156
1241.831055	24196.017578
1240.728516	24343.580078
1239.625977	24463.878906
1238.522461	24105.781250
1237.419922	24371.144531
1236.316406	24405.251953
1235.213867	24482.398438
1234.110352	24095.101562
1233.005859	24423.691406
1231.902344	24296.972656
1230.797852	24140.865234
1229.693359	24177.236328
1228.588867	24317.707031
1227.484375	24175.255859
1226.379883	24274.949219
1225.274414	24220.779297
1224.168945	24309.115234
1223.063477	24302.445312
1221.958008	24390.732422
1220.851562	24420.214844
1219.746094	24137.792969
1218.639648	24293.849609
1217.533203	24354.960938
1216.425781	24178.867188
1215.319336	24350.638672
1214.211914	24334.927734
1213.104492	24416.300781
1211.997070	24186.146484
1210.889648	24430.005859
1209.781250	24150.289062
1208.672852	24412.113281
1207.564453	24294.900391
1206.456055	24328.828125
1205.347656	24234.220703
1204.238281	24207.275391
1203.128906	24200.625000
1202.019531	24613.134766
1200.910156	24491.501953
1199.800781	24356.394531
1198.690430	24442.064453
1197.580078	24457.890625
1196.469727	24358.884766
1195.359375	24246.408203
1194.249023	24462.568359
1193.137695	24446.871094
1192.026367	24559.421875
1190.915039	24503.222656
1189.803711	24314.347656
1188.691406	24276.199219
1187.580078	24543.822266
1186.467773	24492.156250
1185.355469	24092.162109
1184.242188	24143.957031
1183.129883	24168.773438
1182.016602	24422.689453
1180.903320	24422.740234
1179.790039	24207.236328
1178.676758	24541.822266
1177.562500	24425.132812
1176.449219	24380.296875
1175.334961	24196.363281
1174.219727	24456.673828
1173.105469	24432.039062
1171.990234	24351.351562
1170.875977	24526.289062
1169.760742	24156.431641
1168.644531	24391.853516
1167.529297	24176.773438
1166.413086	24340.410156
1165.297852	24221.738281
1164.181641	24239.726562
1163.064453	24349.515625
1161.948242	24427.921875
1160.831055	24304.837891
1159.713867	24349.650391
1158.596680	24394.447266
1157.479492	24367.632812
1156.362305	24354.250000
1155.244141	24329.689453
1154.125977	24217.931641
1153.007812	24054.796875
1151.888672	24162.173828
1150.770508	24394.660156
1149.651367	24508.636719
1148.532227	24300.884766
1147.413086	24106.607422
1146.293945	24017.357422
1145.173828	24106.757812
1144.053711	24216.212891
1142.933594	24481.863281
1141.813477	23832.498047
1140.693359	24040.109375
1139.572266	24352.488281
1138.451172	24298.984375
1137.330078	24223.199219
1136.208984	23978.001953
1135.086914	24129.666016
1133.965820	24258.988281
1132.843750	24087.447266
1131.721680	24076.373047
1130.599609	24016.298828
1129.476562	23967.378906
1128.353516	24092.154297
1127.230469	24089.988281
1126.107422	24012.142578
1124.984375	24107.908203
1123.860352	23992.261719
1122.737305	23867.757812
1121.613281	23950.148438
1120.488281	23805.679688
1119.364258	24177.089844
1118.239258	23714.746094
1117.115234	24137.154297
1115.990234	23748.314453
1114.864258	23848.406250
1113.739258	23997.328125
1112.613281	24064.019531
1111.487305	23857.558594
1110.361328	24017.494141
1109.235352	23771.160156
1108.108398	23968.781250
1106.982422	23844.583984
1105.855469	23771.457031
1104.728516	23991.148438
1103.600586	24055.517578
1102.473633	24168.642578
1101.345703	23805.091797
1100.217773	23971.416016
1099.089844	24077.843750
1097.960938	24153.210938
1096.833008	23927.271484
1095.704102	23971.628906
1094.575195	24082.404297
1093.446289	23951.802734
1092.316406	24024.906250
1091.187500	23878.869141
1090.057617	24239.626953
1088.927734	23759.521484
1087.796875	24047.169922
1086.666992	24002.966797
1085.536133	24124.621094
1084.405273	24060.521484
1083.274414	23866.027344
1082.143555	23914.705078
1081.011719	24173.279297
1079.879883	23989.914062
1078.748047	23961.232422
1077.616211	24153.400391
1076.484375	24131.320312
1075.351562	23943.677734
1074.218750	24224.029297
1073.085938	24107.052734
1071.953125	23789.335938
1070.820312	23948.228516
1069.686523	24239.398438
1068.552734	24129.117188
1067.418945	24018.873047
1066.284180	23910.875000
1065.150391	24080.613281
1064.015625	24219.441406
1062.880859	24358.216797
1061.746094	23981.492188
1060.611328	24003.533203
1059.475586	24029.968750
1058.339844	24272.144531
1057.204102	23994.759766
1056.068359	24181.833984
1054.932617	24023.382812
1053.795898	23845.191406
1052.659180	24296.130859
1051.522461	24434.626953
1050.385742	24018.990234
1049.248047	24212.443359
1048.110352	24236.583984
1046.972656	24104.689453
1045.834961	24038.755859
1044.697266	24240.845703
1043.558594	23937.707031
1042.419922	23953.085938
1041.281250	24212.160156
1040.142578	24097.970703
1039.003906	24207.679688
1037.864258	23867.515625
1036.724609	23803.908203
1035.584961	24062.767578
1034.445312	24023.269531
1033.304688	24023.251953
1032.165039	24148.197266
1031.024414	23948.691406
1029.883789	23948.685547
1028.742188	24023.175781
1027.601562	24152.406250
1026.459961	23900.474609
1025.318359	24047.197266
1024.176758	24152.261719
1023.034180	23924.546875
1021.892578	24154.351562
1020.750000	23878.574219
1019.607422	23858.880859
1018.463867	23753.880859
1017.321289	23795.453125
1016.177734	24112.531250
1015.034180	23775.794922
1013.890625	23959.419922
1012.747070	24112.378906
1011.602539	23878.523438
1010.458008	23705.921875
1009.313477	23989.896484
1008.168945	24105.609375
1007.024414	23957.076172
1005.878906	23900.287109
1004.733398	23834.785156
1003.587891	24015.904297
1002.442383	23939.494141
1001.295898	24192.513672
1000.149414	24055.029297
999.002930	24545.625000
997.856445	23677.732422
996.709961	24061.402344
995.562500	24043.908203
994.415039	23917.464844
993.267578	23947.931641
992.120117	23664.714844
990.972656	24065.453125
989.824219	23875.949219
988.675781	24058.791016
987.527344	24039.136719
986.378906	24145.710938
985.229492	23775.728516
984.080078	24030.242188
982.930664	23645.189453
981.781250	23993.140625
980.631836	23906.111328
979.481445	24060.410156
978.331055	23882.111328
977.180664	24051.568359
976.030273	23936.341797
974.879883	23901.529297
973.728516	24168.621094
972.577148	24070.804688
971.425781	24025.128906
970.273438	23692.939453
969.122070	23944.677734
967.969727	24191.980469
966.817383	24148.480469
965.665039	24154.886719
964.511719	24185.142578
963.359375	24113.478516
962.206055	23911.765625
961.052734	23803.328125
959.898438	24210.695312
958.745117	23798.904297
957.590820	23941.833984
956.436523	23941.761719
955.282227	24337.972656
954.127930	24021.720703
952.972656	24127.699219
951.817383	23945.787109
950.662109	24090.689453
949.506836	24181.449219
948.350586	24144.552734
947.195312	23817.865234
946.039062	23765.910156
944.882812	24051.230469
943.725586	23852.267578
942.569336	24068.308594
941.412109	24022.824219
940.254883	23903.904297
939.097656	23940.541016
937.939453	23985.800781
936.782227	24037.519531
935.624023	24028.775391
934.465820	24026.507812
933.306641	24138.611328
932.148438	23747.964844
930.989258	23901.060547
929.830078	24041.160156
928.670898	23812.470703
927.510742	23635.607422
926.351562	23917.939453
925.191406	24060.082031
924.031250	24029.791016
922.871094	23939.187500
921.709961	23852.925781
920.548828	23796.841797
919.387695	23925.953125
918.226562	23856.958984
917.065430	24085.015625
915.903320	23822.337891
914.741211	23706.064453
913.579102	23671.576172
912.416992	24114.574219
911.254883	23802.621094
910.091797	23574.632812
908.928711	23909.919922
907.765625	23879.720703
906.601562	23722.750000
905.438477	23778.529297
904.274414	23978.203125
903.110352	23640.900391
901.946289	23887.761719
900.781250	23849.005859
899.617188	23908.996094
898.452148	24114.894531
897.287109	23679.173828
896.121094	23634.042969
894.956055	24058.648438
893.790039	23882.652344
892.624023	23914.691406
891.458008	23700.199219
890.291016	23796.556641
889.125000	23809.306641
887.958008	23590.664062
886.791016	23691.269531
885.623047	23648.343750
884.456055	23744.617188
883.288086	23688.849609
882.120117	24031.232422
880.952148	23639.437500
879.783203	23765.591797
878.615234	23831.798828
877.446289	23857.341797
876.277344	23863.625000
875.107422	23852.802734
873.938477	23632.484375
872.768555	23679.414062
871.598633	23905.826172
870.428711	23702.708984
869.257812	24055.064453
868.087891	23740.935547
866.916992	23851.855469
865.746094	24127.125000
864.575195	23832.365234
863.403320	23830.091797
862.231445	23740.335938
861.059570	23857.548828
859.887695	23923.525391
858.715820	23733.566406
857.542969	23933.867188
856.370117	23837.773438
855.197266	23956.984375
854.024414	24010.091797
852.850586	23811.763672
851.676758	23886.175781
850.503906	23954.171875
849.329102	23975.292969
848.155273	24032.597656
846.980469	23983.449219
845.805664	24115.220703
844.630859	23989.468750
843.456055	24080.765625
842.280273	24152.882812
841.105469	23882.576172
839.929688	23759.083984
838.753906	24222.380859
837.577148	24015.974609
836.400391	24304.792969
835.224609	23868.976562
834.046875	24051.496094
832.870117	24148.990234
831.693359	23732.554688
830.515625	24080.599609
829.337891	24037.929688
828.160156	24014.375000
826.981445	23967.488281
825.803711	24264.310547
824.625000	24194.058594
823.446289	24259.562500
822.266602	24223.261719
821.087891	24379.892578
819.908203	24237.599609
818.728516	24370.857422
817.548828	24294.300781
816.368164	24077.955078
815.188477	24416.613281
814.007812	24318.910156
812.827148	24418.148438
811.645508	24400.919922
810.464844	24379.464844
809.283203	24313.578125
808.101562	24302.722656
806.919922	24150.146484
805.737305	24211.228516
804.554688	24043.923828
803.373047	24088.087891
802.189453	24324.582031
801.006836	24119.304688
799.823242	24450.787109
798.640625	24194.859375
797.457031	24184.033203
796.272461	23938.806641
795.088867	24149.724609
793.904297	24147.353516
792.719727	24476.343750
791.535156	24273.443359
790.350586	24370.208984
789.165039	24224.355469
787.979492	24091.208984
786.793945	24095.171875
785.608398	24088.589844
784.421875	24105.195312
783.236328	24180.802734
782.049805	24218.455078
780.862305	24188.677734
779.675781	24028.322266
778.488281	24070.189453
777.300781	24423.650391
776.113281	24193.869141
774.925781	24111.501953
773.737305	24180.673828
772.549805	23921.605469
771.361328	24291.589844
770.171875	24251.324219
768.983398	24059.673828
767.793945	24179.242188
766.604492	24155.830078
765.415039	23970.605469
764.225586	24220.394531
763.035156	24022.619141
761.845703	24081.166016
760.655273	24263.591797
759.463867	24030.220703
758.273438	24210.486328
757.082031	24054.869141
755.890625	24144.826172
754.699219	24211.669922
753.507812	24068.722656
752.315430	24299.140625
751.123047	24139.451172
749.930664	24172.699219
748.738281	24193.357422
747.544922	24455.013672
746.351562	24362.458984
745.158203	24079.298828
743.964844	24074.820312
742.771484	24212.744141
741.577148	24396.677734
740.382812	24186.986328
739.188477	24155.275391
737.994141	24278.429688
736.798828	24158.837891
735.603516	24152.250000
734.408203	24185.400391
733.212891	24034.523438
732.016602	24201.484375
730.821289	24115.457031
729.625000	24127.685547
728.428711	24192.146484
727.231445	24066.472656
726.035156	24178.958984
724.837891	24316.462891
723.640625	24136.546875
722.442383	24443.095703
721.245117	24317.486328
720.046875	24463.205078
718.848633	24502.460938
717.650391	24253.833984
716.451172	24007.386719
715.252930	24409.529297
714.053711	24248.619141
712.854492	24229.507812
711.654297	24262.505859
710.455078	24341.330078
709.254883	24307.626953
708.054688	24313.509766
706.853516	24146.542969
705.653320	24485.589844
704.452148	24320.732422
703.250977	24245.431641
702.049805	24274.207031
700.847656	24519.345703
699.646484	24504.373047
698.444336	24555.957031
697.242188	24328.880859
696.039062	24405.425781
694.836914	24481.937500
693.633789	24456.589844
692.430664	24341.900391
691.227539	24592.886719
690.023438	24224.810547
688.819336	24652.240234
687.615234	24685.011719
686.411133	24555.851562
685.207031	24468.248047
684.001953	24459.531250
682.796875	24430.068359
681.591797	24531.300781
680.386719	24530.869141
679.180664	24271.238281
677.974609	24629.515625
676.768555	24457.019531
675.562500	24628.609375
674.356445	24275.908203
673.149414	24509.613281
671.942383	24285.482422
670.735352	24500.458984
669.527344	24649.099609
668.320312	24687.966797
667.112305	24424.640625
665.904297	24455.255859
664.695312	24601.718750
663.487305	24233.058594
662.278320	24468.437500
661.069336	24356.339844
659.860352	24504.775391
658.650391	24489.861328
657.440430	24421.218750
656.230469	24472.441406
655.020508	24416.220703
653.810547	24529.386719
652.599609	24438.068359
651.388672	24344.718750
650.177734	24393.837891
648.966797	24630.753906
647.754883	24382.652344
646.542969	24299.693359
645.331055	24548.867188
644.119141	24412.283203
642.906250	24529.375000
641.694336	24396.966797
640.481445	24219.261719
639.267578	24418.751953
638.054688	24372.974609
636.840820	24370.474609
635.626953	24365.914062
634.413086	24274.865234
633.199219	24379.443359
631.984375	24232.843750
630.769531	24456.759766
629.554688	24186.732422
628.339844	24385.882812
627.124023	24459.484375
625.909180	24623.544922
624.693359	24351.626953
623.476562	24443.691406
622.260742	24202.740234
621.043945	24290.683594
619.827148	24162.855469
618.610352	24384.300781
617.393555	24410.542969
616.175781	24424.451172
614.958008	24327.484375
613.740234	24444.039062
612.522461	24271.166016
611.303711	24383.582031
610.084961	24434.406250
608.866211	24107.789062
607.647461	24384.232422
606.427734	24348.906250
605.208984	24124.986328
603.989258	24249.593750
602.768555	24347.513672
601.548828	24402.367188
600.328125	24362.966797
599.107422	24507.914062
597.886719	24339.498047
596.666016	24488.486328
595.444336	24279.197266
594.222656	24372.880859
593.000977	24464.480469
591.779297	24365.785156
590.556641	24459.396484
589.334961	24538.654297
588.112305	24339.808594
586.888672	24445.632812
585.666016	24508.496094
584.442383	24481.417969
583.218750	24448.220703
581.995117	24335.367188
580.770508	24402.283203
579.546875	24416.082031
578.322266	24409.457031
577.097656	24249.742188
575.872070	24510.500000
574.647461	24475.291016
573.421875	24586.980469
572.196289	24502.816406
570.969727	24606.298828
569.744141	24460.994141
568.517578	24364.666016
567.291016	24580.210938
566.064453	24620.425781
564.836914	24363.164062
563.609375	24490.994141
562.381836	24451.771484
561.154297	24650.802734
559.926758	24585.095703
558.698242	24478.701172
557.469727	24476.136719
556.241211	24559.031250
555.012695	24407.943359
553.783203	24724.720703
552.553711	24380.468750
551.324219	24479.578125
550.094727	24190.384766
548.864258	24763.044922
547.633789	24443.423828
546.403320	24406.322266
545.172852	24196.574219
543.941406	24301.693359
542.710938	24390.527344
541.479492	24487.445312
540.247070	24507.197266
539.015625	24171.800781
537.783203	24232.183594
536.550781	24213.423828
535.318359	24105.429688
534.085938	24082.644531
532.852539	24256.531250
531.619141	23964.121094
530.385742	24324.417969
529.152344	24147.603516
527.917969	24252.458984
526.683594	24130.414062
525.449219	24061.066406
524.214844	24090.958984
522.979492	24215.986328
521.744141	24047.480469
520.508789	24279.720703
519.273438	24208.380859
518.037109	24110.771484
516.801758	24130.500000
515.565430	23842.859375
514.328125	24198.240234
513.091797	24195.703125
511.854492	24128.496094
510.617188	24055.250000
509.379883	24135.568359
508.142578	24011.851562
506.904297	24080.027344
505.666016	24210.769531
504.427734	24133.535156
503.189453	23953.392578
501.950195	23999.328125
500.710938	24152.173828
499.471680	23863.199219
498.232422	23933.324219
496.992188	24247.406250
495.751953	23928.333984
494.511719	24256.406250
493.271484	24251.832031
492.030273	24263.378906
490.790039	23847.843750
489.548828	23980.306641
488.306641	24223.476562
487.065430	24373.939453
485.823242	24129.794922
484.581055	24310.404297
483.338867	24251.488281
482.095703	24206.675781
480.853516	24135.730469
479.610352	24296.087891
478.367188	24345.792969
477.123047	24357.281250
475.879883	24344.644531
474.635742	24068.757812
473.391602	24122.482422
472.146484	24336.890625
470.902344	24394.558594
469.657227	24072.679688
468.412109	24282.957031
467.166016	24485.125000
465.920898	24223.615234
464.674805	24305.324219
463.428711	24136.228516
462.182617	24203.878906
460.935547	24052.912109
459.688477	24389.224609
458.441406	24083.919922
457.194336	24303.849609
455.946289	24295.251953
454.699219	24022.189453
453.451172	24276.056641
452.202148	24187.353516
450.954102	24214.822266
449.705078	24124.160156
448.456055	24143.621094
447.207031	24331.177734
445.958008	24112.484375
444.708008	23971.894531
443.458008	24207.376953
442.208008	23850.847656
440.957031	24030.279297
439.707031	23875.812500
438.456055	23851.310547
437.205078	23924.732422
435.953125	23958.166016
434.702148	24041.525391
433.450195	23875.212891
432.198242	23810.796875
430.945312	23804.294922
429.693359	24155.072266
428.440430	23609.701172
427.187500	23906.509766
425.934570	23672.582031
424.680664	23660.125000
423.426758	23843.089844
422.172852	23850.541016
420.918945	23909.812500
419.664062	23574.458984
418.410156	23665.640625
417.155273	23940.066406
415.899414	23726.394531
414.644531	23594.451172
413.388672	23707.457031
412.132812	23888.101562
410.876953	23851.732422
409.620117	23791.498047
408.364258	23820.814453
407.107422	23864.042969
405.849609	23789.916016
404.592773	23851.027344
403.334961	23494.626953
402.077148	23714.781250
400.819336	23809.652344
399.561523	23654.136719
398.302734	23919.822266
397.043945	23784.203125
395.785156	23690.335938
394.525391	23477.378906
393.266602	23947.351562
392.006836	23736.408203
390.747070	23591.025391
389.486328	23626.232422
388.226562	23752.664062
386.965820	23585.542969
385.705078	23485.898438
384.443359	23768.892578
383.182617	23716.816406
381.920898	23771.767578
380.659180	23719.708984
379.396484	23443.828125
378.134766	23663.179688
376.872070	23644.830078
375.609375	23628.466797
374.346680	23592.312500
373.083008	24068.736328
371.819336	23737.695312
370.555664	23472.060547
369.291992	23679.240234
368.027344	23708.363281
366.762695	23563.486328
365.498047	23632.154297
364.233398	23615.810547
362.968750	23852.400391
361.703125	23988.142578
360.437500	24086.300781
359.170898	23872.390625
357.905273	24225.242188
356.638672	24921.460938
355.372070	24334.468750
354.105469	24679.136719
352.837891	24869.775391
351.571289	24863.080078
350.303711	25073.332031
349.035156	25031.103516
347.767578	25497.539062
346.499023	25628.703125
345.230469	25813.027344
343.961914	25855.410156
342.692383	25708.656250
341.423828	25516.654297
340.154297	24800.900391
338.883789	24577.640625
337.614258	24297.376953
336.343750	23948.332031
335.073242	23640.744141
333.802734	23535.912109
332.532227	23555.041016
331.260742	23338.164062
329.989258	23485.128906
328.717773	23335.187500
327.445312	23381.851562
326.173828	23288.972656
324.901367	23239.353516
323.627930	23480.482422
322.355469	23187.304688
321.082031	23184.857422
319.808594	23160.812500
318.535156	23319.326172
317.261719	22961.632812
315.987305	23277.095703
314.712891	23105.914062
313.438477	23495.759766
312.164062	23397.158203
310.888672	23239.771484
309.613281	23064.802734
308.337891	23107.449219
307.061523	23297.044922
305.786133	23045.753906
304.509766	23303.843750
303.233398	23477.623047
301.956055	23437.906250
300.678711	23143.707031
299.402344	23131.468750
298.124023	23033.128906
296.846680	23242.007812
295.568359	23444.935547
294.290039	23727.974609
293.011719	23803.626953
291.733398	23589.898438
290.454102	23913.792969
289.174805	23621.949219
287.895508	23584.230469
286.616211	23558.244141
285.335938	23581.099609
284.055664	23410.613281
282.775391	23499.869141
281.494141	23327.507812
280.213867	23406.984375
278.932617	23498.136719
277.651367	22976.648438
276.369141	22985.919922
275.087891	23451.542969
273.805664	23378.824219
272.523438	23206.708984
271.240234	23344.568359
269.958008	23209.548828
268.674805	23407.751953
267.390625	23512.373047
266.107422	23698.755859
264.823242	24500.398438
263.539062	24929.878906
262.254883	25403.962891
260.970703	26710.814453
259.685547	28270.117188
258.400391	29996.126953
257.115234	32423.632812
255.830078	34227.917969
254.543945	35092.425781
253.257812	33810.515625
251.971680	31994.621094
250.684570	29887.941406
249.398438	28238.623047
248.111328	26554.968750
246.824219	25345.820312
245.536133	24847.791016
244.248047	24505.253906
242.960938	23949.343750
241.671875	23500.376953
240.383789	23051.580078
239.094727	23049.115234
237.805664	22804.216797
236.516602	22697.085938
235.227539	22533.773438
233.937500	22731.054688
232.647461	22187.951172
231.357422	22420.099609
230.066406	22181.406250
228.775391	22060.955078
227.485352	21983.148438
226.193359	21973.136719
224.902344	21992.164062
223.610352	21705.392578
222.318359	21890.873047
221.026367	21900.228516
219.733398	21621.373047
218.441406	21507.003906
217.148438	21605.367188
215.854492	21666.960938
214.561523	21421.216797
213.267578	21320.496094
211.973633	21175.376953
210.679688	21520.958984
209.384766	21244.525391
208.090820	21074.396484
206.795898	21151.447266
205.500000	21095.283203
204.205078	21091.246094
202.909180	21145.091797
201.613281	21102.460938
200.317383	21040.558594
199.020508	21088.595703
197.723633	20716.310547
196.426758	20978.355469
195.129883	21059.136719
193.832031	20764.144531
192.534180	21002.908203
191.236328	20602.097656
189.938477	20750.287109
188.639648	20515.263672
187.341797	20519.033203
186.042969	20518.949219
184.743164	20595.839844
183.444336	20462.988281
182.144531	20587.945312
180.844727	20807.089844
179.543945	20566.593750
178.244141	20564.574219
176.943359	20631.750000
175.642578	20337.613281
174.340820	20414.412109
173.040039	20483.494141
171.738281	20379.695312
170.435547	20441.074219
169.133789	20467.873047
167.831055	20554.164062
166.528320	20271.945312
165.225586	20592.330078
163.922852	20488.623047
162.619141	20275.625000
161.315430	20507.609375
160.011719	20114.460938
158.708008	19907.406250
157.403320	20112.492188
156.098633	20051.146484
154.793945	19844.218750
153.488281	19792.523438
152.182617	19972.574219
150.876953	20054.902344
149.571289	20031.910156
148.265625	19807.953125
146.958984	19786.927734
145.652344	19909.404297
144.345703	20075.828125
143.038086	19857.769531
141.730469	19764.083984
140.422852	19674.257812
139.115234	19597.843750
137.806641	19343.730469
136.498047	19639.994141
135.189453	19282.810547
133.880859	19399.431641
132.571289	19256.304688
131.262695	18981.494141
129.952148	18492.998047
128.642578	18376.841797
127.332031	18338.964844
126.021484	18180.910156
124.710938	17713.919922
123.400391	17359.623047
122.088867	17167.527344
120.777344	16746.748047
119.465820	16419.521484
