#Wave		#Intensity
1999.061523	91837.179688
1998.093750	92020.593750
1997.125977	91968.398438
1996.158203	92331.984375
1995.189453	91949.250000
1994.221680	92178.468750
1993.252930	92126.265625
1992.284180	92174.718750
1991.315430	91800.007812
1990.345703	92645.632812
1989.376953	92072.359375
1988.407227	92479.226562
1987.437500	92408.960938
1986.467773	92702.195312
1985.498047	92497.875000
1984.528320	92806.453125
1983.557617	93058.226562
1982.586914	92763.773438
1981.616211	93231.828125
1980.645508	92723.695312
1979.674805	93109.187500
1978.704102	93172.750000
1977.732422	92986.617188
1976.760742	93346.117188
1975.789062	92949.031250
1974.817383	92729.578125
1973.845703	93112.078125
1972.873047	92972.390625
1971.901367	93256.992188
1970.928711	93279.281250
1969.956055	93185.890625
1968.983398	93806.953125
1968.009766	93615.859375
1967.037109	93376.023438
1966.063477	93858.007812
1965.089844	93700.382812
1964.116211	93381.046875
1963.142578	94555.906250
1962.168945	93900.289062
1961.194336	94256.000000
1960.219727	93926.515625
1959.245117	93828.023438
1958.270508	93698.781250
1957.295898	94482.531250
1956.321289	94109.632812
1955.345703	93790.695312
1954.370117	94017.812500
1953.394531	94119.273438
1952.418945	94510.226562
1951.443359	94373.312500
1950.466797	94379.875000
1949.491211	94189.250000
1948.514648	94170.234375
1947.538086	94624.820312
1946.561523	94208.992188
1945.583984	94558.484375
1944.607422	94626.398438
1943.629883	94269.617188
1942.652344	94943.734375
1941.674805	94369.648438
1940.697266	94455.429688
1939.719727	94367.343750
1938.741211	94509.320312
1937.762695	95428.117188
1936.784180	94938.742188
1935.805664	94684.570312
1934.827148	94775.289062
1933.847656	95358.843750
1932.869141	94785.554688
1931.889648	95353.585938
1930.910156	95051.039062
1929.930664	94646.523438
1928.951172	95515.343750
1927.970703	95105.773438
1926.990234	95407.968750
1926.009766	95393.828125
1925.029297	95096.671875
1924.048828	95131.023438
1923.068359	95282.601562
1922.086914	95683.867188
1921.106445	95534.632812
1920.125000	95484.804688
1919.143555	95363.664062
1918.161133	95217.101562
1917.179688	95350.664062
1916.197266	95736.203125
1915.214844	95388.562500
1914.232422	95315.882812
1913.250000	95141.445312
1912.267578	95633.578125
1911.285156	95672.796875
1910.301758	95778.117188
1909.318359	95667.273438
1908.334961	95203.109375
1907.351562	95849.820312
1906.367188	95322.250000
1905.383789	95732.414062
1904.399414	94839.226562
1903.415039	95216.304688
1902.430664	95753.234375
1901.446289	95690.765625
1900.460938	95351.601562
1899.476562	95477.039062
1898.491211	96244.460938
1897.505859	95357.328125
1896.520508	95723.679688
1895.535156	95899.671875
1894.548828	95324.976562
1893.562500	95483.218750
1892.577148	95704.781250
1891.590820	95713.359375
1890.603516	95709.257812
1889.617188	95654.484375
1888.629883	96559.820312
1887.643555	95846.375000
1886.656250	95994.179688
1885.668945	95916.593750
1884.680664	96173.179688
1883.693359	95877.906250
1882.705078	96458.320312
1881.716797	96628.640625
1880.729492	95609.937500
1879.740234	96379.773438
1878.751953	96357.820312
1877.763672	96242.312500
1876.774414	96488.343750
1875.785156	96534.609375
1874.795898	96414.070312
1873.806641	96430.007812
1872.816406	96327.203125
1871.827148	96527.523438
1870.836914	96434.835938
1869.846680	96761.296875
1868.856445	96226.820312
1867.866211	97174.085938
1866.875000	96796.179688
1865.884766	97712.718750
1864.893555	97130.515625
1863.902344	96793.156250
1862.911133	97033.382812
1861.918945	96981.062500
1860.927734	96875.812500
1859.935547	96707.585938
1858.943359	96977.890625
1857.951172	96797.093750
1856.958984	96810.335938
1855.965820	97543.890625
1854.973633	97514.179688
1853.980469	97162.195312
1852.987305	97399.390625
1851.994141	97596.218750
1851.000000	97022.953125
1850.006836	98019.859375
1849.012695	97673.109375
1848.018555	97489.960938
1847.024414	97626.234375
1846.030273	97599.031250
1845.036133	97222.421875
1844.041016	97891.484375
1843.045898	97530.023438
1842.051758	98658.562500
1841.055664	97902.703125
1840.060547	98440.554688
1839.065430	97356.039062
1838.069336	98187.539062
1837.073242	98074.898438
1836.077148	98303.625000
1835.081055	98361.632812
1834.084961	98778.390625
1833.087891	97930.726562
1832.090820	98422.640625
1831.093750	98367.734375
1830.096680	98749.078125
1829.099609	98503.609375
1828.102539	99132.914062
1827.104492	98501.554688
1826.106445	98053.312500
1825.108398	98857.695312
1824.110352	99286.117188
1823.112305	98522.445312
1822.113281	99529.101562
1821.115234	98590.429688
1820.116211	98981.039062
1819.117188	98813.492188
1818.117188	98776.101562
1817.118164	99376.578125
1816.118164	98853.898438
1815.119141	98106.351562
1814.119141	98746.617188
1813.119141	99409.156250
1812.118164	98584.414062
1811.118164	99494.117188
1810.117188	99241.773438
1809.116211	99574.015625
1808.115234	98967.085938
1807.114258	100140.757812
1806.113281	99723.679688
1805.111328	99518.914062
1804.109375	98874.976562
1803.107422	99421.507812
1802.105469	99266.789062
1801.103516	99615.992188
1800.100586	99957.578125
1799.098633	98922.632812
1798.095703	99496.070312
1797.092773	99448.640625
1796.089844	99834.867188
1795.085938	99961.812500
1794.083008	99894.382812
1793.079102	99468.281250
1792.075195	99346.171875
1791.071289	99642.414062
1790.067383	99729.421875
1789.062500	99321.062500
1788.057617	99248.820312
1787.053711	98992.460938
1786.048828	99584.539062
1785.042969	99631.664062
1784.038086	99959.789062
1783.032227	99663.695312
1782.027344	99621.273438
1781.021484	99842.335938
1780.015625	100033.492188
1779.008789	100179.859375
1778.002930	99821.851562
1776.996094	99764.515625
1775.989258	99421.601562
1774.982422	99389.179688
1773.975586	99691.914062
1772.968750	99835.671875
1771.960938	100021.570312
1770.954102	99361.296875
1769.946289	99815.125000
1768.938477	100000.921875
1767.929688	99435.218750
1766.921875	99692.906250
1765.913086	99323.304688
1764.904297	99474.328125
1763.895508	99662.476562
1762.886719	99798.515625
1761.877930	100358.125000
1760.868164	99049.976562
1759.858398	99807.625000
1758.848633	99854.390625
1757.838867	99222.835938
1756.829102	99027.125000
1755.819336	99314.039062
1754.808594	100080.851562
1753.797852	99128.085938
1752.787109	99113.070312
1751.776367	99476.406250
1750.764648	99634.398438
1749.753906	99646.476562
1748.742188	99945.257812
1747.730469	99668.140625
1746.718750	99976.687500
1745.707031	99561.312500
1744.694336	99627.718750
1743.682617	99654.578125
1742.669922	100491.257812
1741.657227	99760.093750
1740.643555	99717.796875
1739.630859	99900.070312
1738.618164	99810.882812
1737.604492	99867.257812
1736.590820	100170.250000
1735.577148	100512.585938
1734.562500	99814.351562
1733.548828	100420.382812
1732.534180	100861.070312
1731.519531	99714.640625
1730.504883	99953.257812
1729.490234	99558.703125
1728.475586	100826.750000
1727.459961	100087.429688
1726.444336	100138.679688
1725.428711	99485.890625
1724.413086	100502.000000
1723.397461	100452.250000
1722.380859	100675.601562
1721.364258	100180.593750
1720.348633	100086.640625
1719.332031	100747.632812
1718.314453	100700.320312
1717.297852	100402.289062
1716.280273	100490.218750
1715.262695	100214.437500
1714.245117	100646.312500
1713.227539	100844.679688
1712.209961	100183.382812
1711.191406	100406.312500
1710.173828	100754.359375
1709.155273	100520.531250
1708.136719	100669.640625
1707.117188	100401.546875
1706.098633	101257.179688
1705.079102	101074.914062
1704.059570	100561.632812
1703.040039	100916.554688
1702.020508	101239.476562
1701.000977	100961.734375
1699.980469	100872.796875
1698.959961	100869.648438
1697.939453	101145.781250
1696.918945	101561.437500
1695.898438	100953.242188
1694.876953	101241.453125
1693.856445	101032.570312
1692.834961	101097.914062
1691.813477	101273.351562
1690.791992	101382.656250
1689.769531	100987.960938
1688.748047	101405.460938
1687.725586	101323.921875
1686.703125	100951.437500
1685.680664	101933.437500
1684.657227	101292.101562
1683.634766	101393.906250
1682.611328	101412.601562
1681.587891	101638.937500
1680.564453	101322.945312
1679.541016	101141.375000
1678.516602	101628.882812
1677.493164	101256.898438
1676.468750	101924.820312
1675.444336	101140.492188
1674.418945	101686.195312
1673.394531	101385.195312
1672.369141	101064.781250
1671.344727	101612.632812
1670.319336	101304.484375
1669.293945	101581.492188
1668.267578	101597.617188
1667.242188	101318.859375
1666.215820	102022.093750
1665.189453	101377.945312
1664.163086	102010.273438
1663.136719	101624.484375
1662.109375	100997.781250
1661.083008	101488.640625
1660.055664	100944.929688
1659.028320	100245.664062
1658.000977	101033.210938
1656.972656	101776.695312
1655.945312	100751.734375
1654.916992	101716.273438
1653.888672	101498.867188
1652.860352	101232.914062
1651.832031	101574.664062
1650.802734	101233.453125
1649.773438	100994.398438
1648.745117	101561.906250
1647.714844	101410.304688
1646.685547	101474.867188
1645.656250	101527.273438
1644.625977	100853.851562
1643.595703	102073.710938
1642.565430	100881.148438
1641.535156	100846.257812
1640.504883	101235.875000
1639.473633	101280.960938
1638.442383	101767.343750
1637.412109	100968.625000
1636.379883	100582.257812
1635.348633	100671.031250
1634.317383	100502.929688
1633.285156	101051.984375
1632.252930	100537.484375
1631.220703	101069.382812
1630.188477	100734.226562
1629.155273	100985.062500
1628.123047	100444.296875
1627.089844	100978.234375
1626.056641	100328.765625
1625.023438	100441.585938
1623.989258	100798.656250
1622.956055	100761.398438
1621.921875	100661.289062
1620.887695	100529.781250
1619.853516	100714.953125
1618.819336	100822.718750
1617.784180	100804.804688
1616.749023	100204.679688
1615.714844	100735.156250
1614.678711	100466.101562
1613.643555	100585.867188
1612.608398	99896.875000
1611.572266	101327.304688
1610.536133	100491.210938
1609.500000	100557.796875
1608.463867	100580.929688
1607.427734	100427.976562
1606.390625	101099.804688
1605.353516	100527.281250
1604.316406	99706.656250
1603.279297	100937.421875
1602.242188	99965.195312
1601.204102	100701.539062
1600.166992	100290.976562
1599.128906	100299.625000
1598.090820	100773.031250
1597.051758	100839.375000
1596.013672	100542.195312
1594.974609	100635.015625
1593.935547	100850.531250
1592.896484	100394.703125
1591.857422	100295.054688
1590.818359	100503.281250
1589.778320	100961.515625
1588.738281	101051.734375
1587.698242	100442.414062
1586.658203	100996.539062
1585.618164	100716.640625
1584.577148	100516.125000
1583.537109	100495.828125
1582.496094	101316.109375
1581.454102	101129.984375
1580.413086	101023.148438
1579.372070	101134.781250
1578.330078	100639.179688
1577.288086	100633.257812
1576.246094	100442.601562
1575.204102	101110.726562
1574.161133	100879.281250
1573.119141	101376.835938
1572.076172	101114.250000
1571.033203	101314.359375
1569.990234	101162.101562
1568.946289	100403.687500
1567.903320	101521.343750
1566.859375	101072.109375
1565.815430	101456.429688
1564.771484	101242.007812
1563.726562	101504.062500
1562.682617	101481.187500
1561.637695	101518.140625
1560.592773	101399.554688
1559.547852	101780.984375
1558.502930	101604.984375
1557.457031	101395.554688
1556.411133	101200.546875
1555.366211	100929.109375
1554.320312	101033.007812
1553.273438	101383.007812
1552.227539	101245.460938
1551.180664	101134.242188
1550.133789	101801.687500
1549.086914	101489.804688
1548.040039	102018.460938
1546.993164	101871.359375
1545.945312	101604.968750
1544.897461	101622.640625
1543.849609	101895.585938
1542.801758	101848.781250
1541.753906	101923.625000
1540.705078	101347.445312
1539.656250	101768.046875
1538.607422	102183.726562
1537.558594	101812.765625
1536.509766	101827.953125
1535.459961	101254.664062
1534.411133	101755.882812
1533.361328	101418.578125
1532.311523	102083.875000
1531.260742	102027.562500
1530.210938	101654.679688
1529.160156	102048.257812
1528.109375	102032.414062
1527.058594	101888.109375
1526.007812	102490.742188
1524.957031	101026.484375
1523.905273	101543.445312
1522.853516	101544.328125
1521.801758	102113.296875
1520.750000	102247.156250
1519.698242	101675.265625
1518.645508	101752.125000
1517.592773	102342.015625
1516.540039	102138.492188
1515.487305	101469.664062
1514.434570	101463.406250
1513.380859	101846.406250
1512.327148	102051.281250
1511.274414	101857.460938
1510.219727	101649.476562
1509.166016	101574.390625
1508.112305	101520.664062
1507.057617	101417.164062
1506.002930	102427.867188
1504.948242	102042.179688
1503.893555	101791.703125
1502.837891	101401.523438
1501.782227	101196.257812
1500.726562	100664.203125
1499.670898	101565.007812
1498.615234	101310.085938
1497.559570	101235.156250
1496.502930	101901.046875
1495.446289	101430.851562
1494.389648	101045.992188
1493.333008	101146.195312
1492.276367	101629.492188
1491.218750	101495.445312
1490.161133	101458.375000
1489.103516	101657.695312
1488.045898	101495.343750
1486.988281	100791.921875
1485.929688	101388.148438
1484.871094	100982.617188
1483.812500	100931.484375
1482.753906	101841.398438
1481.695312	101395.859375
1480.635742	101063.773438
1479.576172	100885.203125
1478.516602	100558.039062
1477.457031	100318.281250
1476.397461	101090.500000
1475.336914	100812.984375
1474.277344	101316.031250
1473.216797	100913.617188
1472.156250	101359.890625
1471.094727	101160.281250
1470.034180	101116.242188
1468.972656	101105.203125
1467.911133	100792.671875
1466.849609	100934.757812
1465.788086	101175.671875
1464.726562	100427.781250
1463.664062	101012.328125
1462.601562	100928.343750
1461.539062	100891.437500
1460.476562	100598.132812
1459.413086	101527.953125
1458.350586	100653.789062
1457.287109	100553.468750
1456.223633	100852.789062
1455.160156	100183.687500
1454.095703	100363.117188
1453.032227	100511.937500
1451.967773	100080.492188
1450.903320	100839.945312
1449.837891	100716.195312
1448.773438	100174.585938
1447.708008	100738.773438
1446.643555	100687.851562
1445.578125	100967.804688
1444.512695	100611.859375
1443.446289	100284.195312
1442.380859	100535.906250
1441.314453	101007.945312
1440.248047	100614.726562
1439.181641	100327.117188
1438.114258	100182.570312
1437.047852	100291.132812
1435.980469	100254.398438
1434.913086	100198.929688
1433.845703	101024.031250
1432.778320	100621.906250
1431.709961	100187.140625
1430.641602	100503.875000
1429.573242	99905.468750
1428.504883	100612.867188
1427.436523	100178.406250
1426.368164	100574.414062
1425.298828	100023.179688
1424.229492	99942.101562
1423.160156	100141.562500
1422.089844	100102.546875
1421.020508	100701.500000
1419.950195	100017.539062
1418.879883	100286.906250
1417.809570	100331.960938
1416.739258	99970.671875
1415.668945	100113.820312
1414.597656	99857.734375
1413.526367	100416.273438
1412.455078	100001.546875
1411.383789	100321.875000
1410.311523	100618.765625
1409.240234	99842.710938
1408.167969	100405.398438
1407.095703	100473.617188
1406.022461	99758.601562
1404.950195	100761.460938
1403.876953	100629.171875
1402.803711	100273.281250
1401.730469	99968.757812
1400.657227	99950.789062
1399.583984	100629.031250
1398.509766	100380.468750
1397.435547	100015.609375
1396.361328	100295.515625
1395.287109	99928.460938
1394.212891	100071.015625
1393.137695	99492.468750
1392.062500	100332.703125
1390.987305	99961.242188
1389.912109	99608.507812
1388.835938	99588.273438
1387.760742	100160.617188
1386.684570	100179.781250
1385.608398	99892.289062
1384.532227	99646.703125
1383.455078	99528.921875
1382.378906	100098.429688
1381.301758	99632.398438
1380.224609	99540.203125
1379.147461	99844.843750
1378.069336	99613.429688
1376.992188	99839.070312
1375.914062	99944.023438
1374.835938	99624.585938
1373.757812	99731.843750
1372.678711	99924.835938
1371.600586	100004.187500
1370.521484	99240.054688
1369.442383	99372.773438
1368.363281	99456.804688
1367.283203	99191.093750
1366.204102	99110.718750
1365.124023	99354.476562
1364.043945	99461.578125
1362.963867	99670.460938
1361.882812	99467.406250
1360.802734	99414.789062
1359.721680	99223.406250
1358.640625	99062.156250
1357.559570	99479.000000
1356.478516	99292.320312
1355.396484	99440.843750
1354.314453	99649.398438
1353.232422	99206.312500
1352.150391	99470.265625
1351.068359	99484.679688
1349.985352	99711.531250
1348.902344	99421.117188
1347.819336	99163.125000
1346.736328	99076.007812
1345.653320	99438.906250
1344.569336	99808.585938
1343.485352	99326.937500
1342.401367	99085.312500
1341.317383	100259.617188
1340.233398	99851.906250
1339.148438	99529.625000
1338.063477	99624.609375
1336.978516	98442.984375
1335.893555	99146.343750
1334.808594	99649.039062
1333.722656	99287.914062
1332.637695	99594.671875
1331.551758	99146.195312
1330.464844	99073.070312
1329.378906	99492.453125
1328.291992	98666.875000
1327.206055	99371.437500
1326.119141	99397.210938
1325.031250	99289.585938
1323.944336	99138.312500
1322.856445	99414.671875
1321.769531	99079.546875
1320.681641	99148.992188
1319.593750	99296.523438
1318.504883	98621.593750
1317.416992	99345.656250
1316.328125	98983.265625
1315.239258	99002.132812
1314.150391	99551.257812
1313.060547	99404.757812
1311.971680	98881.968750
1310.881836	99297.734375
1309.791992	98564.109375
1308.702148	98755.015625
1307.611328	98973.367188
1306.520508	98519.882812
1305.430664	98992.625000
1304.339844	98903.695312
1303.248047	98876.664062
1302.157227	98790.070312
1301.065430	99047.093750
1299.974609	98440.625000
1298.882812	98631.203125
1297.790039	98766.765625
1296.698242	98508.578125
1295.605469	98250.484375
1294.512695	98422.640625
1293.419922	98658.781250
1292.327148	98130.890625
1291.234375	98204.625000
1290.140625	98817.929688
1289.046875	99078.960938
1287.953125	98441.648438
1286.859375	98544.960938
1285.765625	98725.921875
1284.670898	98324.296875
1283.576172	97776.632812
1282.481445	98165.421875
1281.386719	98234.429688
1280.291016	98349.054688
1279.196289	97954.687500
1278.100586	98532.546875
1277.004883	97891.875000
1275.908203	98382.843750
1274.812500	98216.804688
1273.715820	97606.164062
1272.619141	98475.359375
1271.522461	98079.156250
1270.425781	98230.054688
1269.328125	98296.585938
1268.231445	97709.250000
1267.133789	97513.898438
1266.036133	98352.539062
1264.937500	97526.414062
1263.839844	97966.343750
1262.741211	97689.132812
1261.642578	97676.000000
1260.543945	97617.359375
1259.445312	97849.921875
1258.345703	98077.843750
1257.247070	98053.257812
1256.147461	97141.960938
1255.046875	97565.375000
1253.947266	97370.421875
1252.847656	97480.039062
1251.747070	97757.742188
1250.646484	97406.109375
1249.545898	97583.789062
1248.444336	97423.046875
1247.343750	97618.812500
1246.242188	97183.453125
1245.140625	97102.296875
1244.039062	97214.039062
1242.936523	97073.914062
1241.834961	97142.515625
1240.732422	97050.062500
1239.629883	97420.218750
1238.527344	97284.671875
1237.423828	97704.500000
1236.321289	97845.421875
1235.217773	97349.593750
1234.114258	97538.093750
1233.010742	96784.281250
1231.906250	96861.843750
1230.802734	97634.484375
1229.698242	97390.398438
1228.593750	97424.796875
1227.488281	97269.085938
1226.383789	97312.531250
1225.278320	97584.429688
1224.172852	96845.234375
1223.067383	97257.320312
1221.961914	97506.460938
1220.856445	97563.367188
1219.750000	97136.585938
1218.643555	97378.828125
1217.537109	96859.593750
1216.430664	97031.765625
1215.323242	97698.460938
1214.215820	97554.281250
1213.108398	97306.296875
1212.000977	97257.031250
1210.893555	97781.015625
1209.785156	97284.906250
1208.677734	97738.742188
1207.569336	97696.187500
1206.459961	97710.023438
1205.351562	97148.882812
1204.242188	97462.632812
1203.133789	97778.515625
1202.024414	97111.734375
1200.915039	97387.007812
1199.804688	97842.390625
1198.694336	97257.031250
1197.584961	97694.250000
1196.474609	97476.117188
1195.363281	97413.390625
1194.252930	97139.109375
1193.141602	97155.218750
1192.030273	97315.304688
1190.918945	97333.609375
1189.807617	97626.289062
1188.696289	98022.289062
1187.583984	97808.882812
1186.471680	98368.789062
1185.359375	97589.039062
1184.247070	96870.234375
1183.133789	97735.539062
1182.021484	97672.843750
1180.908203	97735.929688
1179.793945	97715.914062
1178.680664	97377.117188
1177.567383	97276.367188
1176.453125	97431.468750
1175.338867	97373.367188
1174.224609	97380.328125
1173.109375	97447.851562
1171.995117	97342.664062
1170.879883	97508.812500
1169.764648	97423.820312
1168.649414	97692.976562
1167.533203	96949.164062
1166.417969	97628.304688
1165.301758	97592.625000
1164.185547	97386.734375
1163.069336	97306.312500
1161.952148	97225.914062
1160.835938	97107.484375
1159.718750	97302.421875
1158.601562	97257.859375
1157.483398	97452.687500
1156.366211	97410.343750
1155.248047	97101.882812
1154.129883	97289.906250
1153.011719	97185.007812
1151.893555	96543.695312
1150.774414	97411.085938
1149.655273	97496.125000
1148.537109	96575.851562
1147.416992	97013.906250
1146.297852	97096.726562
1145.177734	96918.281250
1144.058594	96054.578125
1142.938477	97034.742188
1141.817383	96506.046875
1140.697266	96796.359375
1139.576172	95832.906250
1138.456055	96832.453125
1137.334961	96736.765625
1136.212891	96493.953125
1135.091797	96636.859375
1133.969727	96565.757812
1132.847656	96372.125000
1131.725586	96385.750000
1130.603516	96372.632812
1129.480469	97032.085938
1128.358398	96079.203125
1127.235352	95901.398438
1126.112305	96186.625000
1124.988281	96231.398438
1123.865234	96331.773438
1122.741211	95993.859375
1121.617188	96201.000000
1120.493164	95987.757812
1119.368164	95756.804688
1118.244141	95834.921875
1117.119141	95813.000000
1115.994141	96215.507812
1114.869141	95875.796875
1113.743164	96002.695312
1112.618164	95645.367188
1111.492188	95696.750000
1110.366211	95690.390625
1109.239258	95533.078125
1108.113281	95981.703125
1106.986328	96188.296875
1105.859375	95678.226562
1104.732422	95962.429688
1103.605469	95878.375000
1102.477539	95865.304688
1101.349609	95714.789062
1100.221680	95752.726562
1099.093750	95544.656250
1097.965820	95782.015625
1096.836914	95912.945312
1095.708008	96258.671875
1094.579102	95877.914062
1093.450195	95847.117188
1092.321289	95783.125000
1091.191406	95342.890625
1090.061523	96024.734375
1088.931641	95947.460938
1087.801758	96029.468750
1086.670898	96281.742188
1085.541016	95839.593750
1084.410156	96732.945312
1083.278320	95886.351562
1082.147461	96492.054688
1081.016602	96324.164062
1079.884766	95944.242188
1078.752930	95900.203125
1077.621094	95719.250000
1076.488281	95628.882812
1075.356445	96459.125000
1074.223633	95708.695312
1073.090820	95843.460938
1071.957031	96117.179688
1070.824219	95773.117188
1069.690430	95552.687500
1068.556641	95846.140625
1067.422852	96053.500000
1066.289062	96042.539062
1065.154297	95529.078125
1064.020508	95630.593750
1062.885742	96225.578125
1061.750000	96340.140625
1060.615234	96492.093750
1059.479492	96280.664062
1058.344727	95862.367188
1057.208984	96194.804688
1056.072266	96575.539062
1054.936523	96197.007812
1053.799805	96102.398438
1052.663086	96040.820312
1051.526367	96016.640625
1050.389648	95759.398438
1049.251953	95816.609375
1048.115234	96306.789062
1046.977539	96236.414062
1045.839844	96104.539062
1044.701172	96282.453125
1043.563477	95957.335938
1042.424805	95891.445312
1041.286133	96438.132812
1040.147461	96545.593750
1039.007812	96159.195312
1037.869141	96196.437500
1036.729492	96470.601562
1035.589844	95332.046875
1034.449219	95711.531250
1033.309570	95595.320312
1032.168945	95746.609375
1031.028320	96018.398438
1029.887695	95915.328125
1028.747070	95220.703125
1027.605469	96316.125000
1026.463867	95571.289062
1025.322266	95435.515625
1024.180664	96026.703125
1023.039062	95820.835938
1021.896484	95796.695312
1020.753906	95650.023438
1019.611328	96131.320312
1018.468750	95999.945312
1017.325195	95090.007812
1016.181641	95645.484375
1015.039062	95402.750000
1013.894531	95656.304688
1012.750977	95365.570312
1011.606445	95365.554688
1010.462891	95157.992188
1009.318359	95682.234375
1008.172852	95699.625000
1007.028320	95858.929688
1005.882812	95195.148438
1004.737305	96094.398438
1003.591797	95247.500000
1002.446289	95786.398438
1001.299805	95965.148438
1000.154297	95354.281250
999.007812	95552.664062
997.861328	95947.195312
996.713867	95548.101562
995.567383	95561.070312
994.419922	95964.085938
993.272461	95737.312500
992.125000	95369.031250
990.976562	96037.546875
989.828125	95486.429688
988.680664	95584.273438
987.531250	95427.414062
986.382812	95895.195312
985.234375	95797.070312
984.084961	95788.171875
982.935547	95957.632812
981.786133	95613.796875
980.635742	95957.156250
979.486328	95830.835938
978.335938	95450.250000
977.185547	95799.960938
976.034180	95830.148438
974.883789	95914.632812
973.732422	95284.539062
972.581055	96063.953125
971.429688	96300.312500
970.278320	95561.937500
969.125977	95859.062500
967.973633	95917.382812
966.821289	96418.250000
965.668945	95721.593750
964.516602	95682.304688
963.363281	95950.921875
962.209961	95536.554688
961.056641	95683.710938
959.903320	95527.414062
958.749023	95555.343750
957.595703	95708.898438
956.441406	95884.054688
955.286133	95593.562500
954.131836	95277.187500
952.976562	96095.234375
951.822266	95653.343750
950.666992	96036.062500
949.510742	96284.500000
948.355469	95470.757812
947.199219	95777.585938
946.042969	96529.742188
944.886719	95729.359375
943.730469	95636.078125
942.573242	96078.789062
941.416016	96056.781250
940.258789	95797.132812
939.101562	95645.578125
937.944336	95982.125000
936.786133	95856.492188
935.627930	95610.015625
934.469727	95924.789062
933.311523	95866.117188
932.152344	95835.507812
930.993164	95405.843750
929.833984	95021.617188
928.674805	95858.023438
927.515625	96021.460938
926.355469	95570.500000
925.195312	95354.617188
924.035156	95298.257812
922.875000	95802.046875
921.713867	95450.523438
920.553711	95979.937500
919.392578	95133.273438
918.231445	95425.734375
917.069336	95274.695312
915.908203	95476.632812
914.746094	95175.015625
913.583984	95374.734375
912.420898	95101.203125
911.258789	94954.640625
910.095703	95347.781250
908.932617	95184.023438
907.769531	94738.773438
906.606445	94671.875000
905.442383	95041.125000
904.278320	94806.640625
903.114258	95169.281250
901.950195	95128.101562
900.786133	94947.390625
899.621094	94788.203125
898.456055	94970.289062
897.291016	94577.281250
896.125977	94832.265625
894.959961	94791.171875
893.793945	95018.140625
892.627930	94728.304688
891.461914	94910.179688
890.295898	94991.242188
889.128906	94834.421875
887.961914	94461.257812
886.794922	94942.921875
885.627930	94689.804688
884.459961	94875.734375
883.291992	94716.914062
882.124023	95258.085938
880.956055	94472.203125
879.788086	94510.382812
878.619141	94824.515625
877.450195	94466.906250
876.281250	94768.093750
875.112305	94748.445312
873.942383	94636.875000
872.773438	95091.742188
871.603516	95146.820312
870.432617	95022.406250
869.262695	94821.140625
868.091797	94491.796875
866.920898	94589.632812
865.750000	95073.867188
864.579102	94955.960938
863.407227	94964.015625
862.236328	94882.445312
861.064453	94442.492188
859.892578	95007.335938
858.719727	95015.351562
857.546875	95500.976562
856.375000	94745.710938
855.202148	95231.203125
854.028320	95107.031250
852.855469	95622.093750
851.681641	94931.257812
850.507812	95273.632812
849.333984	95758.554688
848.159180	95308.640625
846.985352	95642.226562
845.810547	95515.992188
844.635742	95560.015625
843.459961	95472.125000
842.285156	95792.664062
841.109375	95468.687500
839.933594	95336.195312
838.757812	95930.804688
837.582031	95964.054688
836.405273	95104.750000
835.228516	95407.968750
834.051758	95640.968750
832.875000	95754.945312
831.697266	95692.617188
830.519531	96515.656250
829.341797	95769.679688
828.164062	96316.484375
826.986328	96502.351562
825.807617	96174.726562
824.628906	96324.476562
823.450195	95963.062500
822.271484	96237.898438
821.091797	95569.226562
819.912109	95835.546875
818.732422	96209.835938
817.552734	96175.054688
816.373047	95856.414062
815.192383	96399.921875
814.011719	96142.765625
812.831055	96048.718750
811.650391	96035.148438
810.468750	96095.648438
809.287109	96154.007812
808.105469	95670.734375
806.923828	96095.085938
805.742188	96491.781250
804.559570	96585.960938
803.376953	96301.664062
802.194336	96049.179688
801.011719	96128.578125
799.828125	96548.125000
798.644531	96276.703125
797.460938	96267.296875
796.277344	96101.609375
795.092773	96237.906250
793.909180	95882.296875
792.724609	96012.242188
791.540039	95787.625000
790.354492	96337.382812
789.169922	96226.687500
787.984375	96156.101562
786.798828	96015.945312
785.612305	95538.531250
784.426758	95959.218750
783.240234	96213.265625
782.053711	96245.968750
780.867188	96080.632812
779.679688	95854.265625
778.493164	95762.757812
777.305664	95365.984375
776.118164	96150.320312
774.930664	96111.406250
773.742188	95851.562500
772.553711	96389.187500
771.365234	96154.617188
770.176758	96187.226562
768.988281	96297.625000
767.798828	95697.375000
766.609375	95627.039062
765.419922	95953.929688
764.229492	95852.046875
763.040039	95645.164062
761.849609	95501.359375
760.659180	96096.812500
759.468750	95984.460938
758.277344	95807.078125
757.086914	96135.570312
755.895508	96033.757812
754.703125	95747.351562
753.511719	95876.382812
752.319336	95722.226562
751.127930	95637.328125
749.934570	96189.789062
748.742188	96033.554688
747.549805	96279.750000
746.356445	96272.312500
745.163086	95573.546875
743.969727	96058.460938
742.775391	95483.539062
741.582031	95256.390625
740.387695	95695.023438
739.193359	96081.164062
737.998047	95973.296875
736.803711	96499.414062
735.608398	95899.921875
734.413086	96007.554688
733.217773	95728.304688
732.021484	96320.953125
730.825195	95792.992188
729.628906	95948.617188
728.432617	96327.757812
727.236328	95649.664062
726.039062	95836.539062
724.841797	96102.703125
723.644531	95827.992188
722.447266	95686.976562
721.249023	95852.820312
720.051758	96160.500000
718.853516	96163.453125
717.654297	95853.492188
716.456055	95902.375000
715.256836	95949.148438
714.057617	96419.117188
712.858398	96540.804688
711.659180	95962.203125
710.458984	96111.007812
709.258789	96097.265625
708.058594	96391.781250
706.858398	96161.398438
705.657227	96255.906250
704.457031	96827.085938
703.255859	95639.320312
702.053711	96033.515625
700.852539	95797.148438
699.650391	96216.117188
698.448242	96243.929688
697.246094	96284.203125
696.043945	96679.968750
694.840820	96576.710938
693.638672	96101.484375
692.434570	95882.000000
691.231445	96522.664062
690.028320	96267.867188
688.824219	96779.460938
687.620117	96032.625000
686.416016	96386.289062
685.210938	96245.843750
684.006836	96225.804688
682.801758	96211.992188
681.596680	96447.101562
680.390625	96603.312500
679.185547	96199.593750
677.979492	96699.929688
676.773438	96642.492188
675.567383	96371.609375
674.360352	96165.054688
673.153320	95786.632812
671.946289	96628.312500
670.739258	96579.203125
669.532227	96068.390625
668.324219	96124.968750
667.116211	96138.054688
665.908203	96558.789062
664.700195	96095.929688
663.491211	96084.179688
662.282227	96120.000000
661.073242	96666.539062
659.864258	96011.718750
658.655273	96423.710938
657.445312	96271.359375
656.235352	96718.265625
655.025391	96406.835938
653.814453	96074.867188
652.604492	96610.343750
651.393555	95989.390625
650.182617	95923.968750
648.970703	95666.617188
647.759766	96150.164062
646.547852	95649.406250
645.335938	95994.562500
644.123047	95912.671875
642.911133	96185.476562
641.698242	96150.984375
640.485352	95893.898438
639.272461	95859.476562
638.059570	96097.031250
636.845703	95679.398438
635.631836	95995.164062
634.417969	95750.679688
633.203125	95736.875000
631.989258	95369.007812
630.774414	95921.265625
629.559570	96024.718750
628.344727	95578.812500
627.128906	95441.609375
625.913086	95674.648438
624.697266	95607.382812
623.481445	95665.546875
622.264648	95579.804688
621.048828	95886.609375
619.832031	95749.476562
618.615234	95955.460938
617.397461	95220.679688
616.180664	95543.726562
614.962891	95098.781250
613.745117	95544.882812
612.526367	95594.710938
611.308594	95414.695312
610.089844	95411.179688
608.871094	95370.734375
607.652344	95439.000000
606.432617	95808.640625
605.212891	96256.046875
603.993164	95680.500000
602.773438	95551.898438
601.553711	95290.171875
600.333008	95497.640625
599.112305	94963.609375
597.891602	94945.804688
596.669922	96054.046875
595.449219	95837.484375
594.227539	95223.953125
593.005859	95578.500000
591.784180	95763.109375
590.561523	95824.921875
589.338867	95553.359375
588.116211	95774.664062
586.893555	96222.796875
585.669922	95501.632812
584.447266	95495.976562
583.223633	95749.796875
581.999023	95784.937500
580.775391	95805.773438
579.550781	95849.046875
578.326172	96276.132812
577.101562	96762.242188
575.876953	95511.414062
574.651367	96119.898438
573.425781	95897.851562
572.200195	96295.945312
570.974609	96167.734375
569.748047	95868.304688
568.522461	96139.781250
567.295898	95632.562500
566.068359	95983.445312
564.841797	95602.757812
563.614258	96637.937500
562.386719	95534.257812
561.159180	96224.929688
559.930664	95192.992188
558.703125	95911.945312
557.474609	95906.140625
556.246094	95965.437500
555.016602	95784.656250
553.788086	95925.304688
552.558594	95118.250000
551.329102	95622.898438
550.098633	95684.203125
548.869141	95544.273438
547.638672	95262.148438
546.408203	95128.429688
545.177734	95218.203125
543.946289	95387.140625
542.714844	94666.648438
541.483398	95152.320312
540.251953	95367.843750
539.020508	94751.242188
537.788086	94863.273438
536.555664	94752.117188
535.323242	95109.515625
534.089844	95101.757812
532.857422	95012.906250
531.624023	94622.046875
530.390625	94431.976562
529.156250	94665.468750
527.922852	94631.445312
526.688477	94445.515625
525.454102	94445.960938
524.218750	94938.437500
522.984375	94770.757812
521.749023	93969.617188
520.513672	94020.734375
519.278320	93918.054688
518.041992	94039.945312
516.805664	94299.320312
515.569336	94305.828125
514.333008	94041.421875
513.096680	94140.945312
511.859375	93826.132812
510.622070	94487.382812
509.384766	94413.015625
508.146484	94112.453125
506.909180	94331.000000
505.670898	93988.156250
504.432617	93183.148438
503.193359	93678.242188
501.955078	93553.640625
500.715820	93959.695312
499.476562	94061.000000
498.236328	93849.656250
496.997070	93952.953125
495.756836	93620.742188
494.516602	94054.601562
493.276367	93839.367188
492.035156	94071.523438
490.793945	93957.093750
489.552734	93790.328125
488.311523	94237.820312
487.070312	94020.718750
485.828125	94178.117188
484.585938	93749.781250
483.343750	94643.640625
482.100586	94024.242188
480.857422	94473.164062
479.615234	94220.039062
478.371094	94246.500000
477.127930	93726.132812
475.883789	94426.000000
474.639648	94287.609375
473.395508	94448.632812
472.151367	94075.242188
470.906250	94394.906250
469.661133	93788.718750
468.416016	94477.718750
467.170898	94152.765625
465.924805	94271.460938
464.679688	94287.773438
463.433594	94151.601562
462.186523	93526.070312
460.940430	94059.898438
459.693359	93791.500000
458.446289	93699.617188
457.199219	94215.054688
455.951172	93387.679688
454.703125	93921.007812
453.455078	93502.632812
452.207031	93601.125000
450.958984	93703.585938
449.709961	94332.523438
448.460938	93441.984375
447.211914	93714.507812
445.961914	93352.648438
444.712891	92530.804688
443.462891	93157.351562
442.212891	93069.750000
440.961914	93591.976562
439.710938	93160.492188
438.460938	92783.132812
437.208984	92997.382812
435.958008	92680.117188
434.706055	92694.554688
433.455078	92403.421875
432.202148	93080.796875
430.950195	92725.812500
429.698242	91955.789062
428.445312	92702.703125
427.192383	92300.093750
425.938477	92344.468750
424.685547	91698.742188
423.431641	92411.218750
422.177734	92124.585938
420.923828	92180.898438
419.668945	92069.789062
418.414062	91474.515625
417.159180	91682.320312
415.904297	91656.992188
414.648438	91952.296875
413.393555	91472.960938
412.137695	91567.125000
410.880859	91896.093750
409.625000	91986.148438
408.368164	91658.359375
407.111328	91648.960938
405.854492	91512.273438
404.597656	91236.445312
403.339844	91421.937500
402.082031	92014.835938
400.824219	91655.585938
399.565430	91348.132812
398.307617	91348.703125
397.048828	91309.546875
395.790039	91244.585938
394.530273	91241.187500
393.271484	91888.882812
392.011719	91091.500000
390.750977	91992.945312
389.491211	91475.570312
388.230469	91368.968750
386.970703	91625.320312
385.708984	90975.445312
384.448242	91566.789062
383.186523	91563.296875
381.925781	91280.390625
380.664062	91055.046875
379.401367	91214.078125
378.139648	91339.375000
376.876953	91153.734375
375.614258	91130.500000
374.350586	91313.132812
373.087891	90981.140625
371.824219	90801.632812
370.560547	91318.531250
369.296875	90826.507812
368.032227	90923.968750
366.767578	90479.648438
365.502930	90387.359375
364.238281	89998.640625
362.972656	90303.648438
361.708008	90650.015625
360.441406	90826.382812
359.175781	90570.179688
357.910156	90993.296875
356.643555	90845.718750
355.376953	90684.382812
354.110352	90838.843750
352.842773	91192.515625
351.575195	90642.585938
350.307617	90773.289062
349.040039	91114.929688
347.772461	91495.859375
346.503906	90887.132812
345.235352	91332.992188
343.966797	90767.875000
342.697266	90707.281250
341.427734	89990.820312
340.158203	90152.921875
338.888672	89720.351562
337.619141	89600.929688
336.348633	89326.070312
335.078125	89175.281250
333.807617	88932.078125
332.536133	89131.539062
331.265625	88241.398438
329.994141	88804.671875
328.722656	89043.351562
327.450195	88875.070312
326.177734	88174.289062
324.905273	88326.492188
323.632812	88046.460938
322.360352	88308.601562
321.086914	87922.632812
319.813477	88457.585938
318.540039	87987.320312
317.266602	88243.375000
315.992188	88412.984375
314.717773	87809.585938
313.443359	88083.164062
312.167969	87744.781250
310.893555	88037.867188
309.618164	87938.773438
308.342773	87647.640625
307.066406	87946.445312
305.790039	87422.273438
304.514648	87619.132812
303.237305	87559.367188
301.960938	87248.976562
300.683594	87275.429688
299.406250	87517.171875
298.128906	87645.312500
296.851562	87258.828125
295.573242	87602.148438
294.294922	87595.234375
293.016602	87879.679688
291.738281	87065.265625
290.458984	87658.546875
289.179688	87147.390625
287.900391	86849.414062
286.620117	87010.640625
285.340820	86962.796875
284.060547	86891.546875
282.780273	86886.695312
281.499023	86360.632812
280.218750	85760.601562
278.937500	85929.625000
277.656250	86139.554688
276.374023	85894.906250
275.091797	86005.289062
273.810547	85846.546875
272.527344	85843.820312
271.245117	85289.484375
269.961914	85563.578125
268.678711	85338.781250
267.395508	86292.601562
266.112305	86159.281250
264.828125	85944.218750
263.543945	86798.078125
262.259766	87312.914062
260.975586	87963.773438
259.690430	89320.703125
258.405273	91227.656250
257.120117	92338.359375
255.833984	93703.382812
254.548828	94299.882812
253.262695	93028.054688
251.976562	91807.234375
250.689453	89842.648438
249.403320	88193.531250
248.116211	87079.218750
246.828125	86297.414062
245.541016	85616.867188
244.252930	85080.242188
242.964844	84332.250000
241.676758	84420.929688
240.388672	83987.656250
239.099609	83306.242188
237.810547	83462.937500
236.521484	83384.937500
235.231445	82674.937500
233.942383	83011.914062
232.652344	82635.585938
231.362305	83044.125000
230.071289	83148.359375
228.780273	82425.507812
227.489258	81842.351562
226.198242	82163.585938
224.907227	82273.703125
223.615234	81894.117188
222.323242	81818.468750
221.031250	81516.492188
219.738281	81206.890625
218.445312	81123.664062
217.152344	80996.000000
215.859375	81206.687500
214.566406	80456.687500
213.272461	81069.335938
211.978516	80536.031250
210.684570	80348.695312
209.389648	80636.539062
208.094727	80215.601562
206.799805	80094.070312
205.504883	79798.859375
204.209961	79841.476562
202.914062	79646.750000
201.618164	79722.171875
200.321289	78933.484375
199.025391	78808.453125
197.728516	79121.117188
196.431641	78812.968750
195.134766	77969.156250
193.836914	78622.851562
192.539062	78413.210938
191.241211	77972.515625
189.943359	77976.835938
188.644531	77881.023438
187.345703	77927.703125
186.046875	77651.015625
184.748047	77690.015625
183.448242	77888.687500
182.149414	77581.375000
180.848633	77766.523438
179.548828	77395.890625
178.248047	77400.281250
176.948242	77193.234375
175.646484	77347.546875
174.345703	77236.648438
173.043945	76993.242188
171.743164	76886.289062
170.440430	77002.117188
169.138672	76885.601562
167.835938	76360.257812
166.533203	76687.226562
165.230469	76816.421875
163.927734	76843.890625
162.624023	76198.109375
161.320312	75801.875000
160.016602	75789.250000
158.711914	75816.875000
157.408203	75809.992188
156.103516	75542.507812
154.798828	75244.468750
153.493164	75279.828125
152.187500	74819.156250
150.881836	74850.750000
149.576172	74836.375000
148.269531	74709.085938
146.963867	74474.671875
145.657227	73754.375000
144.349609	74166.789062
143.042969	73974.679688
141.735352	74038.875000
140.427734	74196.710938
139.120117	74037.195312
137.811523	73635.023438
136.502930	73525.343750
135.194336	72953.406250
133.885742	72377.859375
132.576172	72222.640625
131.266602	70710.023438
129.957031	70276.484375
128.647461	69602.640625
127.336914	68721.070312
126.026367	67551.757812
124.715820	66390.523438
123.405273	65199.218750
122.093750	64481.222656
120.782227	63060.074219
119.470703	61000.988281
