#Wave		#Intensity
1999.061523	138016.687500
1998.093750	137438.015625
1997.125977	137543.203125
1996.158203	138144.187500
1995.189453	137660.515625
1994.221680	137783.671875
1993.252930	137922.250000
1992.284180	137658.218750
1991.315430	137812.250000
1990.345703	138541.500000
1989.376953	138783.015625
1988.407227	137938.750000
1987.437500	138247.312500
1986.467773	138295.390625
1985.498047	138616.656250
1984.528320	138141.500000
1983.557617	138493.593750
1982.586914	138196.359375
1981.616211	138525.125000
1980.645508	138562.765625
1979.674805	139241.515625
1978.704102	138782.156250
1977.732422	138732.218750
1976.760742	138769.765625
1975.789062	139010.578125
1974.817383	138767.656250
1973.845703	139921.468750
1972.873047	138747.531250
1971.901367	138821.015625
1970.928711	138858.484375
1969.956055	139512.812500
1968.983398	139447.343750
1968.009766	140263.203125
1967.037109	139424.359375
1966.063477	139145.750000
1965.089844	139175.390625
1964.116211	139446.359375
1963.142578	139989.359375
1962.168945	140021.390625
1961.194336	139758.281250
1960.219727	139751.828125
1959.245117	140017.312500
1958.270508	140349.390625
1957.295898	139768.390625
1956.321289	140264.484375
1955.345703	139932.359375
1954.370117	139787.453125
1953.394531	139317.125000
1952.418945	139628.437500
1951.443359	140221.437500
1950.466797	141505.781250
1949.491211	139826.734375
1948.514648	140419.375000
1947.538086	140417.875000
1946.561523	139919.828125
1945.583984	140407.187500
1944.607422	140180.531250
1943.629883	140524.406250
1942.652344	140412.890625
1941.674805	140539.234375
1940.697266	141043.937500
1939.719727	140441.531250
1938.741211	140381.203125
1937.762695	140931.656250
1936.784180	140127.718750
1935.805664	140003.593750
1934.827148	140898.625000
1933.847656	140549.656250
1932.869141	140782.968750
1931.889648	140926.828125
1930.910156	141647.484375
1929.930664	140660.640625
1928.951172	140694.718750
1927.970703	140848.687500
1926.990234	141272.968750
1926.009766	141159.000000
1925.029297	140407.640625
1924.048828	140444.250000
1923.068359	141110.421875
1922.086914	141218.250000
1921.106445	140222.781250
1920.125000	141079.671875
1919.143555	140736.609375
1918.161133	140605.031250
1917.179688	140919.062500
1916.197266	141294.078125
1915.214844	142373.984375
1914.232422	155739.859375
1913.250000	145499.531250
1912.267578	141706.515625
1911.285156	141630.843750
1910.301758	140863.484375
1909.318359	141349.875000
1908.334961	140392.171875
1907.351562	141989.187500
1906.367188	141143.500000
1905.383789	141395.734375
1904.399414	141404.000000
1903.415039	141625.625000
1902.430664	141349.406250
1901.446289	141809.609375
1900.460938	141513.140625
1899.476562	141653.343750
1898.491211	140890.062500
1897.505859	141464.171875
1896.520508	141840.203125
1895.535156	141536.359375
1894.548828	141470.984375
1893.562500	141712.421875
1892.577148	141791.531250
1891.590820	141475.203125
1890.603516	142071.281250
1889.617188	142026.109375
1888.629883	142072.156250
1887.643555	141664.812500
1886.656250	141270.250000
1885.668945	142169.640625
1884.680664	141995.359375
1883.693359	141562.984375
1882.705078	141677.343750
1881.716797	141880.218750
1880.729492	143196.093750
1879.740234	141655.953125
1878.751953	142860.125000
1877.763672	142309.171875
1876.774414	142352.468750
1875.785156	141685.531250
1874.795898	142047.312500
1873.806641	142163.890625
1872.816406	142189.484375
1871.827148	142136.765625
1870.836914	142205.265625
1869.846680	142049.031250
1868.856445	141784.296875
1867.866211	142544.375000
1866.875000	142968.546875
1865.884766	142335.406250
1864.893555	142123.750000
1863.902344	142494.796875
1862.911133	142568.140625
1861.918945	142215.359375
1860.927734	142843.296875
1859.935547	142934.171875
1858.943359	142896.484375
1857.951172	142732.828125
1856.958984	142730.437500
1855.965820	142695.312500
1854.973633	142962.375000
1853.980469	142912.093750
1852.987305	143735.343750
1851.994141	143161.421875
1851.000000	142987.828125
1850.006836	143234.437500
1849.012695	142862.140625
1848.018555	144092.078125
1847.024414	143460.750000
1846.030273	143556.234375
1845.036133	142955.375000
1844.041016	142940.312500
1843.045898	143872.609375
1842.051758	143616.203125
1841.055664	143653.765625
1840.060547	144168.515625
1839.065430	143789.125000
1838.069336	144311.187500
1837.073242	143198.890625
1836.077148	144380.937500
1835.081055	143974.156250
1834.084961	144029.125000
1833.087891	144525.578125
1832.090820	144284.484375
1831.093750	144547.500000
1830.096680	144263.859375
1829.099609	144323.734375
1828.102539	144426.171875
1827.104492	143533.765625
1826.106445	144676.046875
1825.108398	143874.078125
1824.110352	144605.140625
1823.112305	144416.953125
1822.113281	145082.562500
1821.115234	144481.312500
1820.116211	145219.234375
1819.117188	144668.218750
1818.117188	144765.359375
1817.118164	144532.281250
1816.118164	145059.578125
1815.119141	145566.671875
1814.119141	145423.562500
1813.119141	145365.484375
1812.118164	144940.031250
1811.118164	145264.359375
1810.117188	145028.937500
1809.116211	144791.109375
1808.115234	145192.687500
1807.114258	145224.578125
1806.113281	144961.843750
1805.111328	145076.109375
1804.109375	145135.421875
1803.107422	145768.640625
1802.105469	145555.859375
1801.103516	145452.906250
1800.100586	146043.312500
1799.098633	145708.406250
1798.095703	145974.437500
1797.092773	145141.125000
1796.089844	144711.843750
1795.085938	145291.843750
1794.083008	145094.359375
1793.079102	144884.484375
1792.075195	145663.390625
1791.071289	145876.765625
1790.067383	144994.671875
1789.062500	145750.718750
1788.057617	145304.453125
1787.053711	145774.015625
1786.048828	144695.984375
1785.042969	145896.765625
1784.038086	145925.781250
1783.032227	145186.437500
1782.027344	144743.203125
1781.021484	144946.375000
1780.015625	145460.109375
1779.008789	145789.796875
1778.002930	145664.734375
1776.996094	145286.343750
1775.989258	145330.281250
1774.982422	145190.437500
1773.975586	145681.218750
1772.968750	145211.234375
1771.960938	145103.734375
1770.954102	145477.640625
1769.946289	145176.625000
1768.938477	144615.265625
1767.929688	145237.015625
1766.921875	145243.640625
1765.913086	144739.578125
1764.904297	144947.031250
1763.895508	145365.062500
1762.886719	144957.859375
1761.877930	143988.437500
1760.868164	144946.343750
1759.858398	145376.437500
1758.848633	145209.671875
1757.838867	144191.343750
1756.829102	144556.968750
1755.819336	145328.312500
1754.808594	144981.015625
1753.797852	144576.953125
1752.787109	145135.156250
1751.776367	145482.953125
1750.764648	144999.859375
1749.753906	144754.250000
1748.742188	145188.421875
1747.730469	144567.234375
1746.718750	145411.421875
1745.707031	145200.484375
1744.694336	145179.781250
1743.682617	145213.421875
1742.669922	145197.656250
1741.657227	145330.015625
1740.643555	145052.593750
1739.630859	144269.390625
1738.618164	144841.000000
1737.604492	145508.593750
1736.590820	145297.921875
1735.577148	145615.015625
1734.562500	145187.421875
1733.548828	145023.734375
1732.534180	145540.328125
1731.519531	144814.781250
1730.504883	145415.000000
1729.490234	144908.953125
1728.475586	145050.828125
1727.459961	144761.703125
1726.444336	145253.156250
1725.428711	145015.796875
1724.413086	145022.156250
1723.397461	145360.718750
1722.380859	145711.453125
1721.364258	145233.078125
1720.348633	144821.281250
1719.332031	145159.609375
1718.314453	144902.843750
1717.297852	145457.343750
1716.280273	145107.203125
1715.262695	144912.000000
1714.245117	146075.484375
1713.227539	145401.156250
1712.209961	145765.937500
1711.191406	145943.968750
1710.173828	145365.765625
1709.155273	145020.953125
1708.136719	145881.265625
1707.117188	145801.484375
1706.098633	145611.312500
1705.079102	145534.046875
1704.059570	145633.375000
1703.040039	144930.843750
1702.020508	146074.625000
1701.000977	146114.953125
1699.980469	146329.281250
1698.959961	145752.062500
1697.939453	146569.031250
1696.918945	145974.812500
1695.898438	146441.234375
1694.876953	145489.750000
1693.856445	145713.703125
1692.834961	146331.656250
1691.813477	145769.796875
1690.791992	145220.359375
1689.769531	146043.562500
1688.748047	145819.578125
1687.725586	145859.781250
1686.703125	145917.093750
1685.680664	146187.062500
1684.657227	145975.406250
1683.634766	145810.265625
1682.611328	146182.703125
1681.587891	146562.343750
1680.564453	145962.390625
1679.541016	146737.531250
1678.516602	146123.109375
1677.493164	145709.062500
1676.468750	146762.078125
1675.444336	146003.968750
1674.418945	146187.937500
1673.394531	146103.484375
1672.369141	145497.093750
1671.344727	146429.687500
1670.319336	146354.968750
1669.293945	146219.328125
1668.267578	146320.156250
1667.242188	145875.078125
1666.215820	146687.359375
1665.189453	146515.203125
1664.163086	146696.250000
1663.136719	146421.859375
1662.109375	145404.953125
1661.083008	145576.359375
1660.055664	145974.031250
1659.028320	146030.890625
1658.000977	146309.109375
1656.972656	145387.968750
1655.945312	145371.921875
1654.916992	145971.093750
1653.888672	145714.218750
1652.860352	145766.156250
1651.832031	146027.093750
1650.802734	145719.312500
1649.773438	145151.671875
1648.745117	146223.875000
1647.714844	145309.031250
1646.685547	145336.671875
1645.656250	144349.453125
1644.625977	145003.515625
1643.595703	145023.890625
1642.565430	145289.328125
1641.535156	145508.578125
1640.504883	145477.906250
1639.473633	145124.671875
1638.442383	144870.984375
1637.412109	145473.171875
1636.379883	144926.203125
1635.348633	144643.578125
1634.317383	144564.578125
1633.285156	144400.828125
1632.252930	144738.515625
1631.220703	144567.500000
1630.188477	144846.921875
1629.155273	144160.281250
1628.123047	144216.968750
1627.089844	144452.718750
1626.056641	144141.546875
1625.023438	143886.109375
1623.989258	144704.718750
1622.956055	144016.375000
1621.921875	144517.890625
1620.887695	144847.593750
1619.853516	144193.406250
1618.819336	144561.703125
1617.784180	144738.968750
1616.749023	144643.187500
1615.714844	144462.906250
1614.678711	144198.140625
1613.643555	144346.359375
1612.608398	144542.796875
1611.572266	144381.937500
1610.536133	144269.390625
1609.500000	143785.312500
1608.463867	143947.921875
1607.427734	144115.281250
1606.390625	144039.015625
1605.353516	143929.015625
1604.316406	143915.468750
1603.279297	144665.968750
1602.242188	144481.187500
1601.204102	144144.687500
1600.166992	144099.765625
1599.128906	143712.859375
1598.090820	143641.546875
1597.051758	143953.062500
1596.013672	143848.015625
1594.974609	144173.812500
1593.935547	143921.953125
1592.896484	143648.531250
1591.857422	143962.156250
1590.818359	143910.078125
1589.778320	143932.562500
1588.738281	143656.906250
1587.698242	144585.640625
1586.658203	143947.046875
1585.618164	144459.687500
1584.577148	143636.328125
1583.537109	144468.296875
1582.496094	143815.750000
1581.454102	143869.390625
1580.413086	144338.328125
1579.372070	144519.062500
1578.330078	144742.921875
1577.288086	144532.390625
1576.246094	143654.968750
1575.204102	144432.937500
1574.161133	144721.375000
1573.119141	144211.250000
1572.076172	144149.593750
1571.033203	144174.250000
1569.990234	144711.750000
1568.946289	144558.968750
1567.903320	144969.234375
1566.859375	144871.546875
1565.815430	145066.046875
1564.771484	144247.656250
1563.726562	144351.218750
1562.682617	144129.234375
1561.637695	144912.406250
1560.592773	144510.937500
1559.547852	144640.671875
1558.502930	144866.031250
1557.457031	145170.218750
1556.411133	144271.625000
1555.366211	144267.421875
1554.320312	144903.765625
1553.273438	145104.953125
1552.227539	144844.921875
1551.180664	144100.062500
1550.133789	144833.875000
1549.086914	144839.093750
1548.040039	144627.031250
1546.993164	144933.046875
1545.945312	144735.343750
1544.897461	143924.437500
1543.849609	144268.578125
1542.801758	145383.078125
1541.753906	145147.250000
1540.705078	144835.203125
1539.656250	145069.234375
1538.607422	145274.578125
1537.558594	145110.421875
1536.509766	145163.156250
1535.459961	144648.843750
1534.411133	144384.828125
1533.361328	144892.531250
1532.311523	144721.421875
1531.260742	145500.281250
1530.210938	144305.562500
1529.160156	145131.812500
1528.109375	144639.515625
1527.058594	144371.031250
1526.007812	144718.687500
1524.957031	145332.593750
1523.905273	145059.343750
1522.853516	145000.156250
1521.801758	144605.828125
1520.750000	144344.734375
1519.698242	144715.750000
1518.645508	144806.312500
1517.592773	145333.875000
1516.540039	144334.234375
1515.487305	144982.781250
1514.434570	144793.078125
1513.380859	144527.468750
1512.327148	144392.484375
1511.274414	144551.750000
1510.219727	144345.625000
1509.166016	143767.187500
1508.112305	145124.031250
1507.057617	144308.546875
1506.002930	144951.265625
1504.948242	144392.062500
1503.893555	144418.390625
1502.837891	144733.750000
1501.782227	144428.343750
1500.726562	144004.625000
1499.670898	143635.515625
1498.615234	144346.156250
1497.559570	143771.156250
1496.502930	144107.562500
1495.446289	144256.890625
1494.389648	143821.781250
1493.333008	144645.281250
1492.276367	144122.734375
1491.218750	144016.562500
1490.161133	143629.062500
1489.103516	144087.953125
1488.045898	143471.328125
1486.988281	143362.953125
1485.929688	143887.765625
1484.871094	143571.484375
1483.812500	143363.937500
1482.753906	143373.703125
1481.695312	143591.218750
1480.635742	143898.328125
1479.576172	143221.218750
1478.516602	143417.375000
1477.457031	143516.734375
1476.397461	142191.390625
1475.336914	142790.875000
1474.277344	142178.203125
1473.216797	143289.046875
1472.156250	142268.718750
1471.094727	143421.546875
1470.034180	141517.968750
1468.972656	142383.109375
1467.911133	143236.156250
1466.849609	142633.546875
1465.788086	142725.718750
1464.726562	142504.765625
1463.664062	142279.171875
1462.601562	142780.812500
1461.539062	142983.453125
1460.476562	142649.671875
1459.413086	142294.828125
1458.350586	142647.937500
1457.287109	142232.093750
1456.223633	142585.062500
1455.160156	142519.546875
1454.095703	141798.453125
1453.032227	142073.765625
1451.967773	142846.968750
1450.903320	142546.578125
1449.837891	142133.562500
1448.773438	142025.906250
1447.708008	141967.578125
1446.643555	141461.015625
1445.578125	142688.687500
1444.512695	141966.312500
1443.446289	142668.000000
1442.380859	141744.187500
1441.314453	142075.171875
1440.248047	142356.812500
1439.181641	142537.546875
1438.114258	142026.859375
1437.047852	141809.250000
1435.980469	142332.000000
1434.913086	141165.765625
1433.845703	141613.500000
1432.778320	141768.390625
1431.709961	141792.109375
1430.641602	141822.843750
1429.573242	141092.984375
1428.504883	141615.171875
1427.436523	141690.343750
1426.368164	141592.406250
1425.298828	141828.906250
1424.229492	142060.640625
1423.160156	141756.953125
1422.089844	141799.281250
1421.020508	141486.390625
1419.950195	142101.171875
1418.879883	141430.921875
1417.809570	141134.593750
1416.739258	141739.734375
1415.668945	141259.015625
1414.597656	141476.406250
1413.526367	141364.640625
1412.455078	141341.578125
1411.383789	141019.890625
1410.311523	141216.171875
1409.240234	140824.640625
1408.167969	141496.546875
1407.095703	140363.718750
1406.022461	141359.453125
1404.950195	141478.546875
1403.876953	141005.734375
1402.803711	141220.359375
1401.730469	140771.046875
1400.657227	140643.281250
1399.583984	140748.390625
1398.509766	141172.406250
1397.435547	141396.078125
1396.361328	141601.062500
1395.287109	140847.312500
1394.212891	140142.687500
1393.137695	141152.546875
1392.062500	141722.500000
1390.987305	140083.390625
1389.912109	141587.843750
1388.835938	140400.234375
1387.760742	140732.859375
1386.684570	140447.328125
1385.608398	140514.984375
1384.532227	140283.000000
1383.455078	140404.062500
1382.378906	140792.078125
1381.301758	140924.593750
1380.224609	139987.109375
1379.147461	140549.015625
1378.069336	140816.046875
1376.992188	140217.750000
1375.914062	140231.953125
1374.835938	140888.453125
1373.757812	140642.843750
1372.678711	140126.109375
1371.600586	139945.609375
1370.521484	140003.828125
1369.442383	140476.734375
1368.363281	140254.546875
1367.283203	140333.515625
1366.204102	140463.390625
1365.124023	139727.359375
1364.043945	140475.296875
1362.963867	140202.375000
1361.882812	140806.484375
1360.802734	140054.718750
1359.721680	140239.968750
1358.640625	139555.625000
1357.559570	139511.984375
1356.478516	139674.109375
1355.396484	139230.593750
1354.314453	139961.171875
1353.232422	139076.453125
1352.150391	140328.875000
1351.068359	139816.250000
1349.985352	138835.015625
1348.902344	139745.078125
1347.819336	139278.984375
1346.736328	139616.234375
1345.653320	140080.281250
1344.569336	139854.296875
1343.485352	139741.437500
1342.401367	139291.875000
1341.317383	140073.828125
1340.233398	139785.750000
1339.148438	138930.703125
1338.063477	138753.546875
1336.978516	139786.187500
1335.893555	139314.031250
1334.808594	139827.906250
1333.722656	139005.843750
1332.637695	139243.265625
1331.551758	139365.484375
1330.464844	139087.156250
1329.378906	139004.531250
1328.291992	138974.843750
1327.206055	138666.812500
1326.119141	138598.078125
1325.031250	139260.687500
1323.944336	138757.312500
1322.856445	139086.296875
1321.769531	138994.531250
1320.681641	138820.078125
1319.593750	139197.109375
1318.504883	138976.718750
1317.416992	139417.875000
1316.328125	138820.906250
1315.239258	138802.734375
1314.150391	139000.343750
1313.060547	138419.812500
1311.971680	139177.328125
1310.881836	139441.281250
1309.791992	138441.187500
1308.702148	138489.578125
1307.611328	138267.359375
1306.520508	139017.312500
1305.430664	138570.421875
1304.339844	137960.968750
1303.248047	138222.484375
1302.157227	138066.921875
1301.065430	138067.171875
1299.974609	138520.875000
1298.882812	137960.046875
1297.790039	137800.031250
1296.698242	137855.250000
1295.605469	138008.843750
1294.512695	138034.234375
1293.419922	138174.000000
1292.327148	138018.656250
1291.234375	137865.640625
1290.140625	137685.234375
1289.046875	137395.156250
1287.953125	137425.171875
1286.859375	137434.609375
1285.765625	137533.140625
1284.670898	137684.171875
1283.576172	137122.531250
1282.481445	137038.359375
1281.386719	137002.156250
1280.291016	137312.937500
1279.196289	136934.343750
1278.100586	136377.890625
1277.004883	137525.906250
1275.908203	136887.421875
1274.812500	137197.906250
1273.715820	136457.093750
1272.619141	137433.250000
1271.522461	136877.265625
1270.425781	136556.234375
1269.328125	136608.984375
1268.231445	136288.109375
1267.133789	137122.156250
1266.036133	135974.593750
1264.937500	136589.812500
1263.839844	135770.562500
1262.741211	136296.812500
1261.642578	136238.000000
1260.543945	135892.515625
1259.445312	135815.593750
1258.345703	136391.453125
1257.247070	136350.843750
1256.147461	136262.484375
1255.046875	136483.312500
1253.947266	136654.062500
1252.847656	135463.562500
1251.747070	135543.531250
1250.646484	135650.734375
1249.545898	135660.218750
1248.444336	136071.640625
1247.343750	135577.015625
1246.242188	136183.500000
1245.140625	135160.218750
1244.039062	135605.437500
1242.936523	135358.531250
1241.834961	135978.203125
1240.732422	135856.031250
1239.629883	135185.171875
1238.527344	135711.562500
1237.423828	135591.765625
1236.321289	135748.484375
1235.217773	136056.953125
1234.114258	135488.578125
1233.010742	135482.140625
1231.906250	135493.796875
1230.802734	135917.546875
1229.698242	134765.531250
1228.593750	135395.203125
1227.488281	135497.375000
1226.383789	134920.734375
1225.278320	134538.843750
1224.172852	135339.968750
1223.067383	135410.390625
1221.961914	135171.031250
1220.856445	135218.843750
1219.750000	135067.750000
1218.643555	135400.265625
1217.537109	135495.437500
1216.430664	135945.218750
1215.323242	135608.875000
1214.215820	135694.906250
1213.108398	135785.421875
1212.000977	136027.125000
1210.893555	136025.000000
1209.785156	134878.875000
1208.677734	135249.187500
1207.569336	135702.812500
1206.459961	135757.093750
1205.351562	135619.703125
1204.242188	134503.968750
1203.133789	135638.078125
1202.024414	135354.281250
1200.915039	135372.515625
1199.804688	135350.171875
1198.694336	135465.234375
1197.584961	135427.109375
1196.474609	135310.203125
1195.363281	135166.312500
1194.252930	134999.953125
1193.141602	135270.218750
1192.030273	134998.156250
1190.918945	136442.515625
1189.807617	135234.718750
1188.696289	135293.343750
1187.583984	135761.109375
1186.471680	135275.640625
1185.359375	134992.593750
1184.247070	135403.968750
1183.133789	135222.093750
1182.021484	134914.484375
1180.908203	135586.156250
1179.793945	134728.468750
1178.680664	135738.890625
1177.567383	135388.750000
1176.453125	135193.578125
1175.338867	135258.734375
1174.224609	135516.796875
1173.109375	135747.828125
1171.995117	134983.109375
1170.879883	135402.500000
1169.764648	135081.953125
1168.649414	135384.609375
1167.533203	135093.312500
1166.417969	134694.578125
1165.301758	134909.750000
1164.185547	135095.734375
1163.069336	134580.750000
1161.952148	135035.375000
1160.835938	134502.671875
1159.718750	134943.687500
1158.601562	134838.578125
1157.483398	134366.593750
1156.366211	134523.312500
1155.248047	134713.515625
1154.129883	134402.781250
1153.011719	134666.687500
1151.893555	134378.421875
1150.774414	134103.656250
1149.655273	133980.921875
1148.537109	134334.062500
1147.416992	134077.296875
1146.297852	133601.781250
1145.177734	133827.515625
1144.058594	133646.875000
1142.938477	133986.328125
1141.817383	133105.015625
1140.697266	133404.281250
1139.576172	133159.125000
1138.456055	133732.578125
1137.334961	133844.234375
1136.212891	133501.031250
1135.091797	133378.625000
1133.969727	132757.031250
1132.847656	132587.984375
1131.725586	132964.828125
1130.603516	132911.640625
1129.480469	132914.140625
1128.358398	133021.265625
1127.235352	132758.812500
1126.112305	133182.000000
1124.988281	132997.484375
1123.865234	133155.671875
1122.741211	132873.343750
1121.617188	132519.921875
1120.493164	132887.140625
1119.368164	133014.093750
1118.244141	132747.515625
1117.119141	132474.375000
1115.994141	132394.656250
1114.869141	132890.390625
1113.743164	132706.203125
1112.618164	132271.109375
1111.492188	132251.421875
1110.366211	132564.750000
1109.239258	132493.937500
1108.113281	132285.546875
1106.986328	131737.734375
1105.859375	132081.968750
1104.732422	132304.062500
1103.605469	132069.234375
1102.477539	132211.421875
1101.349609	131974.453125
1100.221680	131988.046875
1099.093750	131817.671875
1097.965820	132066.140625
1096.836914	132177.156250
1095.708008	131304.703125
1094.579102	131703.687500
1093.450195	132403.640625
1092.321289	132574.250000
1091.191406	131908.187500
1090.061523	132149.640625
1088.931641	132090.093750
1087.801758	131813.781250
1086.670898	132519.546875
1085.541016	131975.687500
1084.410156	131701.750000
1083.278320	132245.750000
1082.147461	132400.593750
1081.016602	131720.140625
1079.884766	132475.921875
1078.752930	131614.562500
1077.621094	132301.609375
1076.488281	132067.656250
1075.356445	131997.156250
1074.223633	132542.484375
1073.090820	131869.453125
1071.957031	132293.234375
1070.824219	132094.765625
1069.690430	132114.718750
1068.556641	132039.843750
1067.422852	132282.468750
1066.289062	132286.921875
1065.154297	132148.125000
1064.020508	132018.171875
1062.885742	132353.140625
1061.750000	131654.875000
1060.615234	131840.015625
1059.479492	132665.843750
1058.344727	132461.031250
1057.208984	132007.578125
1056.072266	132824.093750
1054.936523	132146.281250
1053.799805	132595.093750
1052.663086	132328.859375
1051.526367	131875.812500
1050.389648	132029.765625
1049.251953	131746.187500
1048.115234	131972.625000
1046.977539	132706.609375
1045.839844	131996.812500
1044.701172	131794.703125
1043.563477	131796.921875
1042.424805	131548.796875
1041.286133	131193.187500
1040.147461	131638.906250
1039.007812	131665.281250
1037.869141	131599.468750
1036.729492	131742.093750
1035.589844	131345.062500
1034.449219	131803.468750
1033.309570	131706.968750
1032.168945	131332.062500
1031.028320	131413.203125
1029.887695	130948.632812
1028.747070	131599.484375
1027.605469	131454.875000
1026.463867	131735.234375
1025.322266	131187.703125
1024.180664	132072.296875
1023.039062	131816.031250
1021.896484	130732.539062
1020.753906	131338.796875
1019.611328	131382.531250
1018.468750	131382.515625
1017.325195	130087.718750
1016.181641	131452.406250
1015.039062	131284.000000
1013.894531	131187.781250
1012.750977	131192.125000
1011.606445	130951.742188
1010.462891	131318.781250
1009.318359	130189.437500
1008.172852	131329.562500
1007.028320	130755.226562
1005.882812	131043.414062
1004.737305	130853.484375
1003.591797	131110.984375
1002.446289	131080.375000
1001.299805	131224.281250
1000.154297	131213.281250
999.007812	131298.234375
997.861328	130770.484375
996.713867	130663.640625
995.567383	130667.984375
994.419922	130112.304688
993.272461	130787.765625
992.125000	131269.109375
990.976562	130787.648438
989.828125	131340.656250
988.680664	130698.242188
987.531250	130360.796875
986.382812	130883.093750
985.234375	131250.703125
984.084961	131115.656250
982.935547	130952.351562
981.786133	130967.437500
980.635742	130921.632812
979.486328	131369.312500
978.335938	130443.171875
977.185547	130773.414062
976.034180	130375.679688
974.883789	130677.554688
973.732422	130849.000000
972.581055	130761.976562
971.429688	130720.570312
970.278320	130520.710938
969.125977	131119.593750
967.973633	131568.515625
966.821289	130991.101562
965.668945	130659.007812
964.516602	131604.375000
963.363281	130825.609375
962.209961	130849.242188
961.056641	130985.570312
959.903320	131113.171875
958.749023	131156.218750
957.595703	130631.679688
956.441406	130809.070312
955.286133	130901.937500
954.131836	131206.953125
952.976562	130542.054688
951.822266	131546.078125
950.666992	130926.796875
949.510742	131434.921875
948.355469	130558.460938
947.199219	131207.031250
946.042969	130953.679688
944.886719	131178.187500
943.730469	130790.906250
942.573242	131266.046875
941.416016	130628.226562
940.258789	131500.703125
939.101562	131035.867188
937.944336	130471.859375
936.786133	130035.437500
935.627930	130462.656250
934.469727	130758.062500
933.311523	130403.812500
932.152344	130209.343750
930.993164	130314.781250
929.833984	130038.437500
928.674805	130577.281250
927.515625	130003.453125
926.355469	130115.296875
925.195312	130319.765625
924.035156	129918.671875
922.875000	130215.726562
921.713867	130340.343750
920.553711	129881.304688
919.392578	130303.062500
918.231445	129564.328125
917.069336	129856.835938
915.908203	129669.343750
914.746094	130032.718750
913.583984	130245.375000
912.420898	128920.132812
911.258789	129866.179688
910.095703	129304.726562
908.932617	129063.773438
907.769531	129609.500000
906.606445	129557.664062
905.442383	129052.515625
904.278320	128959.976562
903.114258	129657.781250
901.950195	128987.546875
900.786133	128860.695312
899.621094	129163.171875
898.456055	128974.093750
897.291016	128458.937500
896.125977	128699.093750
894.959961	128475.867188
893.793945	128703.054688
892.627930	128707.171875
891.461914	128518.351562
890.295898	128803.250000
889.128906	129285.179688
887.961914	128554.296875
886.794922	128581.968750
885.627930	129076.507812
884.459961	129226.117188
883.291992	127635.125000
882.124023	128187.335938
880.956055	128931.953125
879.788086	128471.640625
878.619141	127953.726562
877.450195	129003.820312
876.281250	128479.570312
875.112305	128656.820312
873.942383	128782.687500
872.773438	128329.281250
871.603516	128852.625000
870.432617	128946.320312
869.262695	128604.203125
868.091797	129306.585938
866.920898	128101.828125
865.750000	129132.820312
864.579102	129032.101562
863.407227	129392.398438
862.236328	128783.820312
861.064453	128834.671875
859.892578	128936.695312
858.719727	128398.898438
857.546875	129102.226562
856.375000	128924.859375
855.202148	128843.468750
854.028320	129017.820312
852.855469	129571.351562
851.681641	129093.640625
850.507812	129451.000000
849.333984	128847.835938
848.159180	129156.125000
846.985352	129264.203125
845.810547	129380.750000
844.635742	129250.414062
843.459961	129417.960938
842.285156	129553.539062
841.109375	129387.070312
839.933594	129784.125000
838.757812	129424.203125
837.582031	129940.117188
836.405273	129187.148438
835.228516	129637.039062
834.051758	129710.757812
832.875000	129576.289062
831.697266	129573.531250
830.519531	129161.000000
829.341797	129939.476562
828.164062	129427.265625
826.986328	129677.023438
825.807617	130022.148438
824.628906	129921.703125
823.450195	129736.453125
822.271484	129612.750000
821.091797	130106.015625
819.912109	130175.164062
818.732422	129691.171875
817.552734	129866.304688
816.373047	129755.382812
815.192383	130082.921875
814.011719	129258.343750
812.831055	129765.812500
811.650391	129858.179688
810.468750	130193.906250
809.287109	130013.171875
808.105469	129604.015625
806.923828	130019.960938
805.742188	130050.835938
804.559570	129967.507812
803.376953	129712.968750
802.194336	130046.125000
801.011719	129776.859375
799.828125	130099.304688
798.644531	130609.640625
797.460938	129816.585938
796.277344	129752.375000
795.092773	129358.812500
793.909180	130117.976562
792.724609	129884.882812
791.540039	130067.578125
790.354492	129271.250000
789.169922	129707.109375
787.984375	129326.609375
786.798828	129825.539062
785.612305	129424.062500
784.426758	129311.507812
783.240234	129523.531250
782.053711	129969.351562
780.867188	129271.085938
779.679688	130222.289062
778.493164	129846.421875
777.305664	129630.703125
776.118164	128802.476562
774.930664	129818.281250
773.742188	129377.507812
772.553711	129843.687500
771.365234	129203.234375
770.176758	129265.453125
768.988281	129035.367188
767.798828	129484.421875
766.609375	129643.226562
765.419922	128854.164062
764.229492	129536.210938
763.040039	129890.281250
761.849609	129204.507812
760.659180	128705.882812
759.468750	129097.687500
758.277344	129203.835938
757.086914	128927.953125
755.895508	128723.515625
754.703125	129259.765625
753.511719	129380.460938
752.319336	128903.390625
751.127930	128753.601562
749.934570	129434.078125
748.742188	129078.820312
747.549805	129293.718750
746.356445	128251.335938
745.163086	128719.789062
743.969727	129217.382812
742.775391	128952.507812
741.582031	128884.546875
740.387695	129193.414062
739.193359	129043.789062
737.998047	129093.015625
736.803711	128895.328125
735.608398	128892.257812
734.413086	128558.734375
733.217773	128610.078125
732.021484	128970.812500
730.825195	129124.476562
729.628906	128998.031250
728.432617	128696.109375
727.236328	129006.398438
726.039062	129354.164062
724.841797	128780.843750
723.644531	128746.414062
722.447266	128814.289062
721.249023	129005.273438
720.051758	128929.070312
718.853516	128923.828125
717.654297	129150.125000
716.456055	129153.171875
715.256836	128664.109375
714.057617	128479.601562
712.858398	129108.085938
711.659180	128913.132812
710.458984	128866.179688
709.258789	128606.750000
708.058594	128695.257812
706.858398	128883.679688
705.657227	128970.000000
704.457031	128904.320312
703.255859	129163.351562
702.053711	128874.984375
700.852539	129364.851562
699.650391	128847.726562
698.448242	129148.140625
697.246094	129038.796875
696.043945	128761.085938
694.840820	129190.210938
693.638672	129234.687500
692.434570	129607.445312
691.231445	129122.070312
690.028320	128715.796875
688.824219	129285.710938
687.620117	129161.921875
686.416016	129652.648438
685.210938	129632.601562
684.006836	128977.562500
682.801758	129102.867188
681.596680	129518.531250
680.390625	129280.734375
679.185547	129059.609375
677.979492	128855.148438
676.773438	128681.843750
675.567383	128968.679688
674.360352	129435.671875
673.153320	129227.125000
671.946289	129147.062500
670.739258	129543.328125
669.532227	129500.500000
668.324219	129074.710938
667.116211	129073.359375
665.908203	129403.101562
664.700195	128932.031250
663.491211	129234.773438
662.282227	128650.156250
661.073242	128667.468750
659.864258	128970.070312
658.655273	128563.570312
657.445312	128549.875000
656.235352	128439.062500
655.025391	128997.625000
653.814453	128795.882812
652.604492	128697.460938
651.393555	128803.468750
650.182617	128116.750000
648.970703	129062.828125
647.759766	127988.359375
646.547852	128463.703125
645.335938	128367.484375
644.123047	128116.609375
642.911133	128323.593750
641.698242	128099.609375
640.485352	128285.890625
639.272461	128517.437500
638.059570	128542.835938
636.845703	128356.046875
635.631836	127547.289062
634.417969	127787.007812
633.203125	127936.046875
631.989258	128017.085938
630.774414	127923.148438
629.559570	128174.937500
628.344727	128171.515625
627.128906	127431.695312
625.913086	128226.359375
624.697266	127137.242188
623.481445	127384.804688
622.264648	127410.281250
621.048828	127776.882812
619.832031	128400.171875
618.615234	127157.937500
617.397461	127031.421875
616.180664	126824.867188
614.962891	127839.992188
613.745117	127107.843750
612.526367	126995.781250
611.308594	127382.382812
610.089844	127475.453125
608.871094	127638.226562
607.652344	127060.585938
606.432617	127221.312500
605.212891	127437.320312
603.993164	127378.593750
602.773438	127477.671875
601.553711	127470.171875
600.333008	126712.906250
599.112305	127852.484375
597.891602	127724.078125
596.669922	127126.867188
595.449219	126838.968750
594.227539	127629.726562
593.005859	127063.546875
591.784180	127117.453125
590.561523	127559.976562
589.338867	127122.945312
588.116211	127851.539062
586.893555	127788.710938
585.669922	128341.117188
584.447266	127556.843750
583.223633	127857.773438
581.999023	128138.148438
580.775391	127893.523438
579.550781	127469.289062
578.326172	127463.742188
577.101562	127329.593750
575.876953	128026.109375
574.651367	127498.078125
573.425781	127361.937500
572.200195	127623.585938
570.974609	127575.148438
569.748047	127512.453125
568.522461	128085.804688
567.295898	128273.718750
566.068359	127972.492188
564.841797	127221.101562
563.614258	127343.875000
562.386719	127513.429688
561.159180	127902.835938
559.930664	127803.476562
558.703125	127565.742188
557.474609	127265.000000
556.246094	127627.679688
555.016602	127737.960938
553.788086	128106.507812
552.558594	127437.789062
551.329102	127291.843750
550.098633	127558.609375
548.869141	126987.914062
547.638672	127262.750000
546.408203	127108.796875
545.177734	126721.296875
543.946289	126669.039062
542.714844	126417.804688
541.483398	126479.296875
540.251953	126768.085938
539.020508	126013.671875
537.788086	125882.437500
536.555664	126946.085938
535.323242	125733.671875
534.089844	125868.187500
532.857422	126010.757812
531.624023	125622.171875
530.390625	125677.578125
529.156250	125200.031250
527.922852	125117.718750
526.688477	125258.242188
525.454102	125151.632812
524.218750	125227.296875
522.984375	124778.593750
521.749023	125143.718750
520.513672	125138.375000
519.278320	124985.320312
518.041992	124397.406250
516.805664	125354.898438
515.569336	124518.398438
514.333008	124177.531250
513.096680	125181.000000
511.859375	124613.773438
510.622070	124758.015625
509.384766	124096.125000
508.146484	124603.960938
506.909180	124186.695312
505.670898	124452.023438
504.432617	124662.742188
503.193359	124701.820312
501.955078	124896.257812
500.715820	125090.617188
499.476562	124492.148438
498.236328	125251.195312
496.997070	124654.929688
495.756836	124284.671875
494.516602	124291.476562
493.276367	124715.429688
492.035156	124832.960938
490.793945	124493.140625
489.552734	124663.023438
488.311523	125140.945312
487.070312	124565.671875
485.828125	124550.234375
484.585938	124566.992188
483.343750	124499.226562
482.100586	124479.765625
480.857422	124758.000000
479.615234	124183.421875
478.371094	124827.554688
477.127930	124476.312500
475.883789	124784.468750
474.639648	124754.890625
473.395508	124785.593750
472.151367	125228.085938
470.906250	124680.242188
469.661133	124634.617188
468.416016	124625.148438
467.170898	124541.398438
465.924805	124381.414062
464.679688	124556.578125
463.433594	124964.382812
462.186523	124535.617188
460.940430	124381.742188
459.693359	124448.476562
458.446289	124092.203125
457.199219	123942.492188
455.951172	124508.226562
454.703125	123753.414062
453.455078	123858.234375
452.207031	124333.523438
450.958984	123881.515625
449.709961	123848.101562
448.460938	124178.984375
447.211914	123471.085938
445.961914	123647.835938
444.712891	123138.343750
443.462891	123925.117188
442.212891	123285.773438
440.961914	122746.625000
439.710938	123177.187500
438.460938	122918.062500
437.208984	123494.289062
435.958008	122639.828125
434.706055	123052.085938
433.455078	122245.953125
432.202148	122494.382812
430.950195	122475.210938
429.698242	121829.296875
428.445312	121526.875000
427.192383	122220.156250
425.938477	121648.453125
424.685547	122385.320312
423.431641	121349.179688
422.177734	122474.578125
420.923828	121907.226562
419.668945	121294.242188
418.414062	121606.031250
417.159180	121433.601562
415.904297	121520.164062
414.648438	121582.789062
413.393555	121067.976562
412.137695	121506.890625
410.880859	121635.148438
409.625000	121480.781250
408.368164	120864.890625
407.111328	121432.781250
405.854492	120948.382812
404.597656	121154.140625
403.339844	121640.125000
402.082031	121120.164062
400.824219	120459.304688
399.565430	121050.437500
398.307617	121216.218750
397.048828	120865.531250
395.790039	121247.726562
394.530273	121302.179688
393.271484	120769.039062
392.011719	121258.187500
390.750977	120570.468750
389.491211	121349.109375
388.230469	120752.867188
386.970703	120894.570312
385.708984	120625.789062
384.448242	121296.750000
383.186523	120558.242188
381.925781	120424.406250
380.664062	120455.062500
379.401367	120770.945312
378.139648	119953.851562
376.876953	120857.804688
375.614258	120486.437500
374.350586	120099.367188
373.087891	119953.882812
371.824219	119891.554688
370.560547	120404.914062
369.296875	119418.828125
368.032227	119789.695312
366.767578	119644.375000
365.502930	119704.687500
364.238281	119755.093750
362.972656	120119.656250
361.708008	119679.992188
360.441406	119027.164062
359.175781	119042.085938
357.910156	119396.617188
356.643555	119208.109375
355.376953	118859.804688
354.110352	118539.250000
352.842773	118883.710938
351.575195	118393.617188
350.307617	118801.078125
349.040039	118640.476562
347.772461	118647.515625
346.503906	119056.648438
345.235352	118777.828125
343.966797	118298.125000
342.697266	118313.078125
341.427734	117613.031250
340.158203	118010.132812
338.888672	117538.796875
337.619141	117622.757812
336.348633	117401.609375
335.078125	117147.093750
333.807617	117016.617188
332.536133	116789.796875
331.265625	116804.953125
329.994141	116527.125000
328.722656	116982.679688
327.450195	116905.398438
326.177734	116549.085938
324.905273	116304.898438
323.632812	116007.757812
322.360352	115987.648438
321.086914	117033.812500
319.813477	116241.937500
318.540039	116051.007812
317.266602	116158.453125
315.992188	115716.445312
314.717773	115996.539062
313.443359	115843.046875
312.167969	115630.773438
310.893555	115493.085938
309.618164	115955.289062
308.342773	115611.789062
307.066406	115815.125000
305.790039	114635.203125
304.514648	115214.726562
303.237305	114585.671875
301.960938	115004.414062
300.683594	114361.921875
299.406250	115132.851562
298.128906	115036.554688
296.851562	114715.289062
295.573242	114337.406250
294.294922	114736.125000
293.016602	114501.117188
291.738281	114313.117188
290.458984	114285.476562
289.179688	113825.921875
287.900391	113894.109375
286.620117	113169.117188
285.340820	113192.468750
284.060547	113401.328125
282.780273	113426.562500
281.499023	112772.460938
280.218750	113008.585938
278.937500	113316.820312
277.656250	112430.929688
276.374023	112405.585938
275.091797	113053.078125
273.810547	112526.500000
272.527344	111859.757812
271.245117	112237.984375
269.961914	111583.234375
268.678711	111293.070312
267.395508	111480.273438
266.112305	111727.773438
264.828125	112146.539062
263.543945	111856.468750
262.259766	112385.984375
260.975586	112808.250000
259.690430	113059.132812
258.405273	114216.460938
257.120117	114404.718750
255.833984	114662.914062
254.548828	114940.437500
253.262695	114444.179688
251.976562	113845.093750
250.689453	112408.726562
249.403320	111878.242188
248.116211	111544.140625
246.828125	110718.828125
245.541016	110505.453125
244.252930	110818.250000
242.964844	109780.023438
241.676758	109949.226562
240.388672	109524.656250
239.099609	110432.906250
237.810547	109426.554688
236.521484	108858.820312
235.231445	109090.046875
233.942383	108941.265625
232.652344	108784.789062
231.362305	108860.875000
230.071289	108485.546875
228.780273	108319.539062
227.489258	108161.335938
226.198242	107749.562500
224.907227	107572.156250
223.615234	107481.914062
222.323242	107573.585938
221.031250	106887.492188
219.738281	106377.679688
218.445312	106831.140625
217.152344	107448.765625
215.859375	106525.421875
214.566406	106356.218750
213.272461	106069.187500
211.978516	106131.976562
210.684570	105271.375000
209.389648	106114.531250
208.094727	105725.414062
206.799805	105747.648438
205.504883	104675.437500
204.209961	105332.781250
202.914062	105092.656250
201.618164	104912.414062
200.321289	104628.093750
199.025391	104124.039062
197.728516	104023.125000
196.431641	103980.070312
195.134766	103401.250000
193.836914	103591.476562
192.539062	102837.632812
191.241211	102904.609375
189.943359	102857.937500
188.644531	102780.468750
187.345703	103047.601562
186.046875	102583.257812
184.748047	102215.304688
183.448242	102051.421875
182.149414	102026.093750
180.848633	101769.984375
179.548828	101673.562500
178.248047	101690.601562
176.948242	101867.156250
175.646484	101565.132812
174.345703	101368.898438
173.043945	101747.109375
171.743164	101114.914062
170.440430	101181.937500
169.138672	101108.773438
167.835938	100976.132812
166.533203	101027.773438
165.230469	101004.554688
163.927734	100375.125000
162.624023	100219.687500
161.320312	100179.367188
160.016602	100750.671875
158.711914	99372.234375
157.408203	99590.820312
156.103516	99389.664062
154.798828	99370.585938
153.493164	98949.265625
152.187500	98434.265625
150.881836	99108.500000
149.576172	98486.445312
148.269531	98404.375000
146.963867	97995.101562
145.657227	97922.718750
144.349609	97484.984375
143.042969	97821.992188
141.735352	97979.125000
140.427734	97780.601562
139.120117	97532.445312
137.811523	97282.468750
136.502930	96016.101562
135.194336	95630.875000
133.885742	94905.812500
132.576172	94566.765625
131.266602	93340.054688
129.957031	92375.320312
128.647461	90895.664062
127.336914	89695.156250
126.026367	88142.171875
124.715820	86847.281250
123.405273	85385.062500
122.093750	83561.132812
120.782227	81188.890625
119.470703	78241.968750
