#Wave		#Intensity
1999.061523	242277.062500
1998.093750	242072.984375
1997.125977	241715.687500
1996.158203	241732.953125
1995.189453	242635.828125
1994.221680	242136.593750
1993.252930	243511.406250
1992.284180	243946.375000
1991.315430	244223.781250
1990.345703	242589.515625
1989.376953	243413.859375
1988.407227	243046.484375
1987.437500	243937.484375
1986.467773	243549.500000
1985.498047	243012.156250
1984.528320	242766.187500
1983.557617	244143.546875
1982.586914	242627.421875
1981.616211	243566.437500
1980.645508	243487.906250
1979.674805	244562.875000
1978.704102	243606.328125
1977.732422	244390.046875
1976.760742	243552.218750
1975.789062	244363.968750
1974.817383	243840.265625
1973.845703	244733.953125
1972.873047	244657.812500
1971.901367	244825.968750
1970.928711	245521.046875
1969.956055	245033.531250
1968.983398	246375.906250
1968.009766	245156.125000
1967.037109	245439.593750
1966.063477	244957.546875
1965.089844	245423.250000
1964.116211	245547.296875
1963.142578	244433.937500
1962.168945	245433.343750
1961.194336	245752.328125
1960.219727	245796.656250
1959.245117	245902.531250
1958.270508	245685.171875
1957.295898	245465.328125
1956.321289	246337.812500
1955.345703	246094.828125
1954.370117	245723.765625
1953.394531	245703.906250
1952.418945	246993.343750
1951.443359	246299.515625
1950.466797	246328.203125
1949.491211	245826.765625
1948.514648	246592.921875
1947.538086	246695.750000
1946.561523	246719.203125
1945.583984	246816.843750
1944.607422	246737.890625
1943.629883	247779.437500
1942.652344	247587.796875
1941.674805	246774.765625
1940.697266	246598.687500
1939.719727	247964.156250
1938.741211	246515.046875
1937.762695	247287.156250
1936.784180	247673.187500
1935.805664	247333.546875
1934.827148	247584.031250
1933.847656	247203.656250
1932.869141	247630.234375
1931.889648	247219.328125
1930.910156	247566.609375
1929.930664	246497.437500
1928.951172	246472.187500
1927.970703	247411.234375
1926.990234	247367.968750
1926.009766	247773.531250
1925.029297	248194.234375
1924.048828	247997.859375
1923.068359	248115.046875
1922.086914	248196.515625
1921.106445	247368.328125
1920.125000	247829.453125
1919.143555	248206.359375
1918.161133	247640.875000
1917.179688	247271.625000
1916.197266	247999.703125
1915.214844	248261.734375
1914.232422	247828.921875
1913.250000	247846.609375
1912.267578	248192.453125
1911.285156	249029.046875
1910.301758	247815.671875
1909.318359	247220.546875
1908.334961	248051.750000
1907.351562	247820.250000
1906.367188	248770.484375
1905.383789	247959.609375
1904.399414	247588.484375
1903.415039	246757.750000
1902.430664	247677.000000
1901.446289	247712.328125
1900.460938	247303.390625
1899.476562	248810.875000
1898.491211	248452.625000
1897.505859	248015.828125
1896.520508	248502.578125
1895.535156	249017.031250
1894.548828	248552.453125
1893.562500	247593.593750
1892.577148	248148.484375
1891.590820	248307.765625
1890.603516	248413.781250
1889.617188	247947.125000
1888.629883	249264.015625
1887.643555	248042.578125
1886.656250	248178.906250
1885.668945	248651.921875
1884.680664	248772.875000
1883.693359	249255.734375
1882.705078	248784.359375
1881.716797	248854.609375
1880.729492	249069.015625
1879.740234	247505.265625
1878.751953	248764.203125
1877.763672	248227.546875
1876.774414	248330.640625
1875.785156	249295.562500
1874.795898	249709.234375
1873.806641	249182.859375
1872.816406	249477.671875
1871.827148	248921.187500
1870.836914	250372.484375
1869.846680	249172.203125
1868.856445	249138.578125
1867.866211	250382.078125
1866.875000	249825.890625
1865.884766	250263.953125
1864.893555	249677.687500
1863.902344	250405.656250
1862.911133	250830.765625
1861.918945	250108.515625
1860.927734	250392.343750
1859.935547	250348.390625
1858.943359	250196.093750
1857.951172	250137.062500
1856.958984	250642.312500
1855.965820	251494.953125
1854.973633	250680.234375
1853.980469	250648.812500
1852.987305	250458.812500
1851.994141	250462.656250
1851.000000	251088.046875
1850.006836	252072.984375
1849.012695	251248.906250
1848.018555	250623.796875
1847.024414	251585.640625
1846.030273	250314.531250
1845.036133	252291.625000
1844.041016	252237.265625
1843.045898	250564.609375
1842.051758	251528.078125
1841.055664	252089.281250
1840.060547	252085.187500
1839.065430	252269.406250
1838.069336	252260.234375
1837.073242	252012.578125
1836.077148	252282.015625
1835.081055	251873.828125
1834.084961	252730.265625
1833.087891	253328.015625
1832.090820	252801.953125
1831.093750	253183.812500
1830.096680	253277.203125
1829.099609	252332.781250
1828.102539	252664.359375
1827.104492	253329.093750
1826.106445	252390.125000
1825.108398	251987.546875
1824.110352	251735.375000
1823.112305	253696.859375
1822.113281	252493.078125
1821.115234	252243.406250
1820.116211	253885.906250
1819.117188	253428.375000
1818.117188	253013.515625
1817.118164	253246.671875
1816.118164	252639.406250
1815.119141	252672.484375
1814.119141	253125.562500
1813.119141	252878.546875
1812.118164	253486.359375
1811.118164	253776.593750
1810.117188	253544.578125
1809.116211	253080.312500
1808.115234	253098.218750
1807.114258	254089.937500
1806.113281	254307.359375
1805.111328	254427.343750
1804.109375	253846.000000
1803.107422	254345.281250
1802.105469	253369.937500
1801.103516	255463.031250
1800.100586	253704.718750
1799.098633	254794.593750
1798.095703	254041.703125
1797.092773	253889.796875
1796.089844	254607.703125
1795.085938	254303.718750
1794.083008	253591.265625
1793.079102	254428.375000
1792.075195	254632.609375
1791.071289	254259.093750
1790.067383	253995.218750
1789.062500	254468.218750
1788.057617	254142.171875
1787.053711	253756.515625
1786.048828	254828.843750
1785.042969	253898.437500
1784.038086	254097.421875
1783.032227	253846.265625
1782.027344	254092.406250
1781.021484	255017.031250
1780.015625	254313.515625
1779.008789	254701.046875
1778.002930	254574.171875
1776.996094	253297.296875
1775.989258	254047.359375
1774.982422	252492.921875
1773.975586	254603.265625
1772.968750	254079.328125
1771.960938	253979.937500
1770.954102	253324.781250
1769.946289	253275.156250
1768.938477	254455.796875
1767.929688	253247.843750
1766.921875	253106.484375
1765.913086	253778.281250
1764.904297	253805.406250
1763.895508	253408.750000
1762.886719	252838.765625
1761.877930	252558.828125
1760.868164	253851.781250
1759.858398	252922.921875
1758.848633	253103.609375
1757.838867	252588.609375
1756.829102	254509.281250
1755.819336	253533.890625
1754.808594	253993.906250
1753.797852	253813.031250
1752.787109	253285.921875
1751.776367	253045.859375
1750.764648	253339.937500
1749.753906	252565.968750
1748.742188	254125.468750
1747.730469	252538.593750
1746.718750	252765.796875
1745.707031	253336.281250
1744.694336	253531.125000
1743.682617	254037.062500
1742.669922	252703.375000
1741.657227	253843.671875
1740.643555	253329.906250
1739.630859	252984.109375
1738.618164	252428.703125
1737.604492	253743.343750
1736.590820	253878.578125
1735.577148	253811.546875
1734.562500	253167.593750
1733.548828	253835.281250
1732.534180	252627.125000
1731.519531	254184.234375
1730.504883	254257.593750
1729.490234	253825.921875
1728.475586	253512.609375
1727.459961	254327.218750
1726.444336	254562.953125
1725.428711	254249.640625
1724.413086	254172.718750
1723.397461	252855.593750
1722.380859	253425.984375
1721.364258	254170.796875
1720.348633	253744.656250
1719.332031	254393.234375
1718.314453	253323.046875
1717.297852	253565.859375
1716.280273	253476.796875
1715.262695	253218.187500
1714.245117	254799.843750
1713.227539	254342.109375
1712.209961	253732.250000
1711.191406	253832.265625
1710.173828	253647.421875
1709.155273	253123.906250
1708.136719	253270.562500
1707.117188	255056.281250
1706.098633	254537.671875
1705.079102	254914.546875
1704.059570	253996.359375
1703.040039	253985.750000
1702.020508	254411.515625
1701.000977	254422.890625
1699.980469	254456.281250
1698.959961	253935.890625
1697.939453	254579.375000
1696.918945	254294.265625
1695.898438	254947.234375
1694.876953	254772.328125
1693.856445	254976.953125
1692.834961	254474.093750
1691.813477	254566.078125
1690.791992	255536.453125
1689.769531	254532.218750
1688.748047	254973.906250
1687.725586	255307.812500
1686.703125	254455.718750
1685.680664	253493.906250
1684.657227	256049.703125
1683.634766	254479.406250
1682.611328	254891.250000
1681.587891	254921.828125
1680.564453	254849.812500
1679.541016	255117.250000
1678.516602	255167.281250
1677.493164	255107.437500
1676.468750	253771.062500
1675.444336	255202.515625
1674.418945	254513.156250
1673.394531	254851.046875
1672.369141	254825.406250
1671.344727	254134.015625
1670.319336	255008.171875
1669.293945	254826.453125
1668.267578	254257.265625
1667.242188	253846.656250
1666.215820	254927.312500
1665.189453	254017.328125
1664.163086	254298.671875
1663.136719	255010.921875
1662.109375	254563.968750
1661.083008	254326.531250
1660.055664	254668.421875
1659.028320	254684.093750
1658.000977	254483.218750
1656.972656	253742.359375
1655.945312	254570.500000
1654.916992	254058.453125
1653.888672	253147.859375
1652.860352	253606.140625
1651.832031	253758.015625
1650.802734	253168.671875
1649.773438	253597.531250
1648.745117	253122.578125
1647.714844	253886.421875
1646.685547	253319.296875
1645.656250	253485.562500
1644.625977	252540.015625
1643.595703	252580.140625
1642.565430	253219.593750
1641.535156	253541.000000
1640.504883	253905.937500
1639.473633	252104.984375
1638.442383	252688.250000
1637.412109	252422.781250
1636.379883	253551.156250
1635.348633	251955.078125
1634.317383	252433.734375
1633.285156	251209.078125
1632.252930	252031.625000
1631.220703	251674.453125
1630.188477	251847.687500
1629.155273	252233.875000
1628.123047	252402.093750
1627.089844	251144.796875
1626.056641	252164.828125
1625.023438	251657.968750
1623.989258	251918.015625
1622.956055	251379.921875
1621.921875	251726.968750
1620.887695	251365.546875
1619.853516	251572.250000
1618.819336	251718.468750
1617.784180	250825.640625
1616.749023	251943.062500
1615.714844	251857.218750
1614.678711	250194.453125
1613.643555	251374.125000
1612.608398	250890.093750
1611.572266	250828.593750
1610.536133	250443.734375
1609.500000	251168.890625
1608.463867	250562.156250
1607.427734	251038.578125
1606.390625	250550.218750
1605.353516	251323.031250
1604.316406	250964.953125
1603.279297	250698.578125
1602.242188	250781.703125
1601.204102	250252.828125
1600.166992	250046.906250
1599.128906	250727.390625
1598.090820	250181.906250
1597.051758	251126.937500
1596.013672	250810.250000
1594.974609	250534.578125
1593.935547	249898.031250
1592.896484	250293.859375
1591.857422	250699.140625
1590.818359	250038.828125
1589.778320	249823.593750
1588.738281	250452.312500
1587.698242	249763.531250
1586.658203	250077.171875
1585.618164	250061.484375
1584.577148	249990.546875
1583.537109	251019.765625
1582.496094	250144.109375
1581.454102	251016.843750
1580.413086	250482.390625
1579.372070	251148.296875
1578.330078	249632.406250
1577.288086	251068.453125
1576.246094	250332.796875
1575.204102	250880.687500
1574.161133	250500.250000
1573.119141	250832.078125
1572.076172	250427.796875
1571.033203	251483.390625
1569.990234	250328.984375
1568.946289	251973.640625
1567.903320	250790.796875
1566.859375	250904.203125
1565.815430	251094.187500
1564.771484	251513.953125
1563.726562	250650.390625
1562.682617	251369.265625
1561.637695	251286.171875
1560.592773	250023.515625
1559.547852	251593.718750
1558.502930	251838.281250
1557.457031	251011.390625
1556.411133	252049.765625
1555.366211	251158.562500
1554.320312	251594.203125
1553.273438	251867.171875
1552.227539	251327.687500
1551.180664	252658.843750
1550.133789	251765.890625
1549.086914	250820.718750
1548.040039	251850.390625
1546.993164	251063.062500
1545.945312	251409.703125
1544.897461	251851.656250
1543.849609	251291.390625
1542.801758	252587.171875
1541.753906	251044.312500
1540.705078	252487.500000
1539.656250	252499.671875
1538.607422	252592.875000
1537.558594	251144.031250
1536.509766	251339.875000
1535.459961	251580.921875
1534.411133	251717.046875
1533.361328	251872.171875
1532.311523	251384.312500
1531.260742	251539.421875
1530.210938	251880.140625
1529.160156	251416.296875
1528.109375	251473.734375
1527.058594	251443.109375
1526.007812	251681.265625
1524.957031	251762.375000
1523.905273	251032.609375
1522.853516	251857.890625
1521.801758	251637.015625
1520.750000	250760.296875
1519.698242	250442.250000
1518.645508	251302.640625
1517.592773	251317.140625
1516.540039	251295.984375
1515.487305	250339.328125
1514.434570	250130.796875
1513.380859	251123.343750
1512.327148	251503.250000
1511.274414	251164.093750
1510.219727	251432.359375
1509.166016	250784.968750
1508.112305	250427.125000
1507.057617	249972.171875
1506.002930	250181.140625
1504.948242	251086.859375
1503.893555	249928.203125
1502.837891	250106.234375
1501.782227	249997.562500
1500.726562	250476.281250
1499.670898	249853.703125
1498.615234	250211.515625
1497.559570	249617.593750
1496.502930	249480.640625
1495.446289	249308.250000
1494.389648	250368.531250
1493.333008	249867.218750
1492.276367	249884.015625
1491.218750	249737.625000
1490.161133	249532.187500
1489.103516	248974.593750
1488.045898	248559.000000
1486.988281	249388.828125
1485.929688	249488.312500
1484.871094	248527.171875
1483.812500	248964.484375
1482.753906	248095.843750
1481.695312	248263.921875
1480.635742	248443.718750
1479.576172	248507.812500
1478.516602	248357.156250
1477.457031	248444.812500
1476.397461	248343.718750
1475.336914	248457.265625
1474.277344	248304.312500
1473.216797	249007.171875
1472.156250	247256.093750
1471.094727	247108.125000
1470.034180	247480.921875
1468.972656	247735.781250
1467.911133	247411.125000
1466.849609	247461.000000
1465.788086	247258.921875
1464.726562	246814.437500
1463.664062	247666.968750
1462.601562	246923.687500
1461.539062	247088.843750
1460.476562	246741.125000
1459.413086	246932.109375
1458.350586	246476.343750
1457.287109	246023.062500
1456.223633	246244.609375
1455.160156	247187.609375
1454.095703	247242.000000
1453.032227	246950.984375
1451.967773	246317.109375
1450.903320	247156.031250
1449.837891	245930.593750
1448.773438	246839.687500
1447.708008	246764.921875
1446.643555	246237.203125
1445.578125	245944.328125
1444.512695	246592.312500
1443.446289	245358.843750
1442.380859	246147.406250
1441.314453	245779.671875
1440.248047	246157.578125
1439.181641	245836.843750
1438.114258	246655.171875
1437.047852	245769.734375
1435.980469	246009.109375
1434.913086	244969.500000
1433.845703	245485.265625
1432.778320	245888.421875
1431.709961	246424.890625
1430.641602	245884.453125
1429.573242	245929.250000
1428.504883	245346.968750
1427.436523	245833.968750
1426.368164	245675.234375
1425.298828	245334.140625
1424.229492	245561.328125
1423.160156	245140.875000
1422.089844	245805.046875
1421.020508	244342.453125
1419.950195	245555.578125
1418.879883	244535.046875
1417.809570	244962.921875
1416.739258	244318.796875
1415.668945	244975.343750
1414.597656	244648.890625
1413.526367	244446.234375
1412.455078	244365.000000
1411.383789	244619.734375
1410.311523	245182.281250
1409.240234	244032.750000
1408.167969	243935.281250
1407.095703	244166.546875
1406.022461	243679.796875
1404.950195	244805.953125
1403.876953	244885.453125
1402.803711	243988.765625
1401.730469	244112.625000
1400.657227	244504.250000
1399.583984	243806.015625
1398.509766	243680.703125
1397.435547	243986.046875
1396.361328	243297.546875
1395.287109	243079.296875
1394.212891	243261.250000
1393.137695	243296.593750
1392.062500	242950.531250
1390.987305	244322.828125
1389.912109	242753.890625
1388.835938	243003.093750
1387.760742	243844.781250
1386.684570	243203.796875
1385.608398	242779.078125
1384.532227	243246.375000
1383.455078	242819.453125
1382.378906	242727.015625
1381.301758	242381.578125
1380.224609	243041.203125
1379.147461	242661.000000
1378.069336	241782.093750
1376.992188	243244.062500
1375.914062	242328.250000
1374.835938	242697.390625
1373.757812	243173.031250
1372.678711	241270.218750
1371.600586	241954.515625
1370.521484	242390.609375
1369.442383	242198.703125
1368.363281	242245.437500
1367.283203	241875.265625
1366.204102	242104.953125
1365.124023	242383.156250
1364.043945	243191.312500
1362.963867	242013.531250
1361.882812	241106.875000
1360.802734	241593.218750
1359.721680	242125.656250
1358.640625	241984.906250
1357.559570	241929.750000
1356.478516	241213.453125
1355.396484	241461.218750
1354.314453	241577.171875
1353.232422	241847.875000
1352.150391	240780.921875
1351.068359	241370.390625
1349.985352	240624.875000
1348.902344	240216.718750
1347.819336	240893.656250
1346.736328	240933.328125
1345.653320	241362.953125
1344.569336	240509.625000
1343.485352	240323.250000
1342.401367	239993.937500
1341.317383	241142.828125
1340.233398	241196.187500
1339.148438	239866.453125
1338.063477	240274.906250
1336.978516	239321.390625
1335.893555	241340.187500
1334.808594	241805.718750
1333.722656	240329.625000
1332.637695	240528.046875
1331.551758	241106.250000
1330.464844	240093.718750
1329.378906	240209.187500
1328.291992	239774.703125
1327.206055	239979.890625
1326.119141	240021.703125
1325.031250	238982.609375
1323.944336	239311.968750
1322.856445	239346.953125
1321.769531	240305.875000
1320.681641	239226.093750
1319.593750	238879.625000
1318.504883	239686.468750
1317.416992	240075.000000
1316.328125	239560.906250
1315.239258	239037.796875
1314.150391	239641.984375
1313.060547	238444.265625
1311.971680	238961.125000
1310.881836	238619.703125
1309.791992	238982.640625
1308.702148	238297.296875
1307.611328	238967.406250
1306.520508	237787.093750
1305.430664	237957.312500
1304.339844	238562.921875
1303.248047	238102.781250
1302.157227	238767.687500
1301.065430	238069.437500
1299.974609	238663.093750
1298.882812	238226.125000
1297.790039	237681.718750
1296.698242	237922.593750
1295.605469	238019.187500
1294.512695	238298.796875
1293.419922	236924.296875
1292.327148	237016.421875
1291.234375	238391.421875
1290.140625	237698.984375
1289.046875	237365.671875
1287.953125	236705.640625
1286.859375	236818.250000
1285.765625	236405.281250
1284.670898	236803.421875
1283.576172	235835.593750
1282.481445	236989.531250
1281.386719	237526.578125
1280.291016	236198.437500
1279.196289	235683.281250
1278.100586	235925.890625
1277.004883	235495.359375
1275.908203	235528.031250
1274.812500	236021.375000
1273.715820	236250.015625
1272.619141	235933.687500
1271.522461	234931.359375
1270.425781	235893.890625
1269.328125	235498.015625
1268.231445	235161.500000
1267.133789	235134.890625
1266.036133	235345.109375
1264.937500	234630.812500
1263.839844	234520.046875
1262.741211	233869.859375
1261.642578	234917.593750
1260.543945	235307.359375
1259.445312	234896.218750
1258.345703	234282.796875
1257.247070	234385.906250
1256.147461	234498.078125
1255.046875	234332.843750
1253.947266	233631.281250
1252.847656	234341.140625
1251.747070	234346.406250
1250.646484	234244.890625
1249.545898	233700.515625
1248.444336	233583.250000
1247.343750	232748.562500
1246.242188	233001.484375
1245.140625	232698.265625
1244.039062	233994.890625
1242.936523	233469.250000
1241.834961	234068.859375
1240.732422	232928.781250
1239.629883	233487.437500
1238.527344	233143.593750
1237.423828	232722.796875
1236.321289	232082.328125
1235.217773	232695.078125
1234.114258	232131.828125
1233.010742	232402.312500
1231.906250	232808.562500
1230.802734	233203.343750
1229.698242	231743.921875
1228.593750	233510.328125
1227.488281	232678.203125
1226.383789	233117.921875
1225.278320	232351.750000
1224.172852	232992.640625
1223.067383	232880.281250
1221.961914	233529.859375
1220.856445	232906.546875
1219.750000	232364.796875
1218.643555	232605.093750
1217.537109	233410.125000
1216.430664	232468.734375
1215.323242	231981.625000
1214.215820	232867.578125
1213.108398	232565.687500
1212.000977	232193.906250
1210.893555	232388.734375
1209.785156	233330.328125
1208.677734	233344.375000
1207.569336	232713.296875
1206.459961	234008.359375
1205.351562	232326.656250
1204.242188	232063.546875
1203.133789	232769.703125
1202.024414	233191.656250
1200.915039	232554.484375
1199.804688	232226.140625
1198.694336	233361.921875
1197.584961	232229.609375
1196.474609	232633.218750
1195.363281	234128.437500
1194.252930	232685.984375
1193.141602	233388.546875
1192.030273	232781.421875
1190.918945	232277.984375
1189.807617	232888.000000
1188.696289	233522.500000
1187.583984	232362.703125
1186.471680	233406.156250
1185.359375	233314.281250
1184.247070	232474.187500
1183.133789	233463.109375
1182.021484	232641.250000
1180.908203	232107.125000
1179.793945	233097.781250
1178.680664	232404.359375
1177.567383	232633.687500
1176.453125	232512.843750
1175.338867	231889.421875
1174.224609	232928.531250
1173.109375	232713.453125
1171.995117	232224.875000
1170.879883	230942.750000
1169.764648	232283.859375
1168.649414	231558.000000
1167.533203	231666.015625
1166.417969	231191.453125
1165.301758	230670.000000
1164.185547	230701.937500
1163.069336	231284.703125
1161.952148	231126.187500
1160.835938	231628.062500
1159.718750	231487.421875
1158.601562	231561.640625
1157.483398	231660.437500
1156.366211	230886.828125
1155.248047	231162.359375
1154.129883	230758.046875
1153.011719	231272.687500
1151.893555	230998.109375
1150.774414	230397.359375
1149.655273	229294.078125
1148.537109	229830.906250
1147.416992	229241.828125
1146.297852	230312.187500
1145.177734	229866.109375
1144.058594	229431.343750
1142.938477	229717.640625
1141.817383	229684.703125
1140.697266	228493.843750
1139.576172	229614.406250
1138.456055	228948.078125
1137.334961	229098.125000
1136.212891	229181.218750
1135.091797	229028.000000
1133.969727	229070.953125
1132.847656	228944.515625
1131.725586	228403.750000
1130.603516	228515.796875
1129.480469	228681.265625
1128.358398	228325.609375
1127.235352	227547.093750
1126.112305	228213.421875
1124.988281	228274.171875
1123.865234	227909.921875
1122.741211	227594.734375
1121.617188	228378.390625
1120.493164	228358.984375
1119.368164	227165.609375
1118.244141	227737.718750
1117.119141	226896.046875
1115.994141	227190.187500
1114.869141	226544.421875
1113.743164	227360.531250
1112.618164	227498.937500
1111.492188	227399.687500
1110.366211	227071.796875
1109.239258	227694.062500
1108.113281	226203.281250
1106.986328	226898.671875
1105.859375	226901.625000
1104.732422	227587.750000
1103.605469	227217.984375
1102.477539	225777.375000
1101.349609	227101.765625
1100.221680	226377.625000
1099.093750	227021.062500
1097.965820	226782.406250
1096.836914	226572.625000
1095.708008	226571.109375
1094.579102	225885.312500
1093.450195	227099.437500
1092.321289	226823.312500
1091.191406	227791.125000
1090.061523	225649.500000
1088.931641	227013.187500
1087.801758	226044.859375
1086.670898	226187.125000
1085.541016	226484.109375
1084.410156	226475.890625
1083.278320	226774.906250
1082.147461	226154.421875
1081.016602	227041.140625
1079.884766	225828.750000
1078.752930	226253.531250
1077.621094	226576.562500
1076.488281	226886.203125
1075.356445	226032.328125
1074.223633	226558.250000
1073.090820	226373.375000
1071.957031	226817.390625
1070.824219	227104.609375
1069.690430	226809.437500
1068.556641	226838.515625
1067.422852	226543.468750
1066.289062	226521.875000
1065.154297	226647.937500
1064.020508	226093.046875
1062.885742	226399.781250
1061.750000	226479.515625
1060.615234	226962.234375
1059.479492	226773.171875
1058.344727	226606.187500
1057.208984	226324.796875
1056.072266	227295.718750
1054.936523	228959.390625
1053.799805	227643.718750
1052.663086	227518.453125
1051.526367	225763.687500
1050.389648	226436.937500
1049.251953	226450.437500
1048.115234	226846.375000
1046.977539	226829.000000
1045.839844	225792.171875
1044.701172	226431.812500
1043.563477	225808.312500
1042.424805	225922.875000
1041.286133	226353.531250
1040.147461	225923.531250
1039.007812	225768.015625
1037.869141	225485.281250
1036.729492	226001.234375
1035.589844	226455.562500
1034.449219	225082.843750
1033.309570	225142.468750
1032.168945	225850.984375
1031.028320	226539.500000
1029.887695	224858.734375
1028.747070	225691.781250
1027.605469	225488.296875
1026.463867	225543.343750
1025.322266	225158.187500
1024.180664	224398.750000
1023.039062	224926.781250
1021.896484	224804.546875
1020.753906	225614.578125
1019.611328	224588.656250
1018.468750	225092.156250
1017.325195	224593.781250
1016.181641	225024.906250
1015.039062	224393.343750
1013.894531	224030.859375
1012.750977	225274.828125
1011.606445	224250.218750
1010.462891	224176.312500
1009.318359	224307.734375
1008.172852	224797.265625
1007.028320	223902.281250
1005.882812	225040.046875
1004.737305	224536.031250
1003.591797	223770.296875
1002.446289	224597.625000
1001.299805	224957.781250
1000.154297	223708.187500
999.007812	224044.375000
997.861328	224225.625000
996.713867	224236.781250
995.567383	223517.796875
994.419922	224078.187500
993.272461	223464.046875
992.125000	223686.578125
990.976562	223412.468750
989.828125	223445.468750
988.680664	223693.984375
987.531250	224815.234375
986.382812	223655.343750
985.234375	223714.343750
984.084961	223908.203125
982.935547	223586.468750
981.786133	223377.953125
980.635742	223443.437500
979.486328	224041.500000
978.335938	223300.468750
977.185547	223920.046875
976.034180	223652.937500
974.883789	223859.468750
973.732422	224246.171875
972.581055	223551.343750
971.429688	223245.375000
970.278320	223725.296875
969.125977	225101.359375
967.973633	224001.062500
966.821289	224389.437500
965.668945	223124.812500
964.516602	224120.406250
963.363281	224230.968750
962.209961	223550.203125
961.056641	223758.343750
959.903320	223840.703125
958.749023	223374.859375
957.595703	223270.937500
956.441406	223935.953125
955.286133	223487.640625
954.131836	222935.546875
952.976562	223232.218750
951.822266	223318.828125
950.666992	224188.734375
949.510742	223703.953125
948.355469	222473.078125
947.199219	223416.156250
946.042969	223954.531250
944.886719	222864.781250
943.730469	222955.593750
942.573242	223649.328125
941.416016	223506.593750
940.258789	222432.812500
939.101562	223193.171875
937.944336	223227.656250
936.786133	223722.000000
935.627930	222990.015625
934.469727	222351.078125
933.311523	223063.234375
932.152344	222318.796875
930.993164	222957.328125
929.833984	222267.078125
928.674805	222174.375000
927.515625	222443.890625
926.355469	222952.562500
925.195312	222228.296875
924.035156	222116.234375
922.875000	221924.500000
921.713867	221786.656250
920.553711	221435.671875
919.392578	220507.750000
918.231445	221614.515625
917.069336	221737.234375
915.908203	221623.187500
914.746094	221179.984375
913.583984	221294.078125
912.420898	220216.593750
911.258789	220851.203125
910.095703	221227.578125
908.932617	221878.937500
907.769531	220404.500000
906.606445	221186.828125
905.442383	220785.093750
904.278320	220420.015625
903.114258	220130.234375
901.950195	219960.781250
900.786133	219720.531250
899.621094	220173.671875
898.456055	219927.015625
897.291016	220536.562500
896.125977	219622.750000
894.959961	220191.343750
893.793945	220037.046875
892.627930	220007.140625
891.461914	219842.203125
890.295898	219235.781250
889.128906	219675.312500
887.961914	219043.421875
886.794922	219292.156250
885.627930	218956.109375
884.459961	219603.031250
883.291992	218783.187500
882.124023	219134.484375
880.956055	220320.281250
879.788086	220048.500000
878.619141	218739.234375
877.450195	218996.140625
876.281250	219058.328125
875.112305	218883.140625
873.942383	219071.437500
872.773438	219422.093750
871.603516	218962.703125
870.432617	219214.937500
869.262695	218424.640625
868.091797	219456.406250
866.920898	219543.953125
865.750000	219037.953125
864.579102	218880.062500
863.407227	218297.515625
862.236328	219151.203125
861.064453	219868.031250
859.892578	219492.484375
858.719727	219027.515625
857.546875	219910.250000
856.375000	220023.062500
855.202148	219142.593750
854.028320	220169.703125
852.855469	219457.828125
851.681641	219643.031250
850.507812	219966.593750
849.333984	219265.765625
848.159180	219949.078125
846.985352	219442.203125
845.810547	219448.406250
844.635742	220369.593750
843.459961	220460.703125
842.285156	219858.359375
841.109375	220502.453125
839.933594	220472.265625
838.757812	221300.937500
837.582031	219704.093750
836.405273	220398.703125
835.228516	220763.718750
834.051758	220423.312500
832.875000	219862.125000
831.697266	220507.312500
830.519531	220148.000000
829.341797	220610.328125
828.164062	219968.828125
826.986328	220759.890625
825.807617	220833.562500
824.628906	221151.125000
823.450195	221139.843750
822.271484	220592.093750
821.091797	220778.062500
819.912109	221016.937500
818.732422	220066.843750
817.552734	221007.062500
816.373047	220417.437500
815.192383	220351.156250
814.011719	220691.484375
812.831055	221112.140625
811.650391	221039.390625
810.468750	219942.296875
809.287109	220654.828125
808.105469	220478.515625
806.923828	221046.828125
805.742188	219984.343750
804.559570	220588.468750
803.376953	220274.843750
802.194336	220513.000000
801.011719	220643.265625
799.828125	220281.171875
798.644531	220595.218750
797.460938	221014.734375
796.277344	220637.953125
795.092773	219948.828125
793.909180	220228.890625
792.724609	221036.468750
791.540039	220742.218750
790.354492	220458.625000
789.169922	220791.078125
787.984375	220349.375000
786.798828	220226.234375
785.612305	220851.546875
784.426758	220842.171875
783.240234	220531.406250
782.053711	219858.343750
780.867188	220363.140625
779.679688	220631.843750
778.493164	219855.921875
777.305664	220335.140625
776.118164	220595.250000
774.930664	220152.265625
773.742188	220025.093750
772.553711	219851.671875
771.365234	220199.984375
770.176758	220350.453125
768.988281	219750.187500
767.798828	219501.218750
766.609375	219666.421875
765.419922	220518.765625
764.229492	219303.218750
763.040039	219970.421875
761.849609	219122.984375
760.659180	218813.453125
759.468750	220624.640625
758.277344	220258.234375
757.086914	218945.390625
755.895508	219477.562500
754.703125	219961.265625
753.511719	219288.953125
752.319336	219147.500000
751.127930	219213.687500
749.934570	219998.937500
748.742188	219867.890625
747.549805	219558.734375
746.356445	219574.468750
745.163086	219485.437500
743.969727	219729.453125
742.775391	219223.671875
741.582031	219496.937500
740.387695	219177.671875
739.193359	219440.375000
737.998047	219585.765625
736.803711	219103.437500
735.608398	219207.000000
734.413086	219841.718750
733.217773	218855.640625
732.021484	218405.125000
730.825195	218935.109375
729.628906	219393.828125
728.432617	218912.093750
727.236328	219190.968750
726.039062	218625.875000
724.841797	219610.531250
723.644531	219569.625000
722.447266	220048.515625
721.249023	219005.703125
720.051758	219486.593750
718.853516	218846.906250
717.654297	218839.515625
716.456055	219172.062500
715.256836	218630.765625
714.057617	218487.875000
712.858398	219595.671875
711.659180	218729.468750
710.458984	219128.359375
709.258789	218720.859375
708.058594	219221.625000
706.858398	219145.359375
705.657227	219406.406250
704.457031	219937.984375
703.255859	219289.218750
702.053711	219606.250000
700.852539	220087.515625
699.650391	219083.359375
698.448242	219090.328125
697.246094	219592.187500
696.043945	219185.328125
694.840820	218774.453125
693.638672	219905.765625
692.434570	219316.187500
691.231445	219630.515625
690.028320	219506.453125
688.824219	219693.921875
687.620117	219389.234375
686.416016	219724.031250
685.210938	218634.890625
684.006836	219615.046875
682.801758	220350.000000
681.596680	219313.187500
680.390625	218932.109375
679.185547	219594.187500
677.979492	219072.203125
676.773438	218691.359375
675.567383	219375.875000
674.360352	219718.234375
673.153320	219399.593750
671.946289	219178.421875
670.739258	218949.031250
669.532227	219069.640625
668.324219	220101.031250
667.116211	219176.140625
665.908203	218375.750000
664.700195	219392.187500
663.491211	219069.859375
662.282227	218429.156250
661.073242	218555.828125
659.864258	219139.343750
658.655273	219549.000000
657.445312	218214.250000
656.235352	218295.375000
655.025391	218855.734375
653.814453	217916.343750
652.604492	217413.031250
651.393555	218468.718750
650.182617	218194.609375
648.970703	217039.296875
647.759766	218564.921875
646.547852	217934.000000
645.335938	217967.500000
644.123047	217450.312500
642.911133	216941.578125
641.698242	217548.343750
640.485352	217419.000000
639.272461	217139.281250
638.059570	216740.125000
636.845703	216779.921875
635.631836	216967.984375
634.417969	217007.687500
633.203125	216734.421875
631.989258	216753.562500
630.774414	216270.484375
629.559570	216079.796875
628.344727	216403.500000
627.128906	215778.796875
625.913086	216723.515625
624.697266	216610.968750
623.481445	215445.875000
622.264648	216118.765625
621.048828	215979.656250
619.832031	216693.265625
618.615234	216280.859375
617.397461	216024.687500
616.180664	215316.828125
614.962891	215685.078125
613.745117	215133.531250
612.526367	215594.000000
611.308594	215356.625000
610.089844	215652.734375
608.871094	215390.781250
607.652344	215612.921875
606.432617	215670.937500
605.212891	215925.734375
603.993164	216157.859375
602.773438	215434.937500
601.553711	215644.515625
600.333008	215417.671875
599.112305	216112.562500
597.891602	215601.062500
596.669922	216092.953125
595.449219	214881.562500
594.227539	216016.000000
593.005859	215165.187500
591.784180	215233.265625
590.561523	215724.703125
589.338867	216197.562500
588.116211	215788.953125
586.893555	216042.859375
585.669922	216443.796875
584.447266	216717.890625
583.223633	215878.359375
581.999023	215786.781250
580.775391	215919.890625
579.550781	216626.734375
578.326172	216126.718750
577.101562	216565.843750
575.876953	216159.875000
574.651367	216478.421875
573.425781	216576.500000
572.200195	216042.234375
570.974609	215695.765625
569.748047	216438.218750
568.522461	216191.687500
567.295898	215774.015625
566.068359	216106.406250
564.841797	216518.125000
563.614258	215905.046875
562.386719	216408.281250
561.159180	216477.578125
559.930664	215818.000000
558.703125	215647.187500
557.474609	215850.875000
556.246094	215407.437500
555.016602	215712.796875
553.788086	215155.640625
552.558594	215143.671875
551.329102	215672.531250
550.098633	214887.984375
548.869141	215758.109375
547.638672	215077.453125
546.408203	214352.359375
545.177734	215345.968750
543.946289	214062.578125
542.714844	214393.906250
541.483398	214199.296875
540.251953	213306.515625
539.020508	214203.968750
537.788086	213388.609375
536.555664	213569.578125
535.323242	213208.953125
534.089844	213035.000000
532.857422	212571.187500
531.624023	211738.593750
530.390625	212258.125000
529.156250	213221.203125
527.922852	211870.296875
526.688477	211670.406250
525.454102	211863.468750
524.218750	212151.609375
522.984375	211354.546875
521.749023	211490.843750
520.513672	210799.406250
519.278320	211249.359375
518.041992	210983.015625
516.805664	210639.906250
515.569336	211500.093750
514.333008	210855.765625
513.096680	210284.437500
511.859375	210549.984375
510.622070	210098.125000
509.384766	210406.031250
508.146484	210342.156250
506.909180	210132.890625
505.670898	210713.156250
504.432617	210915.703125
503.193359	210228.078125
501.955078	210232.859375
500.715820	210748.062500
499.476562	210161.687500
498.236328	210033.343750
496.997070	209465.437500
495.756836	209956.171875
494.516602	209340.125000
493.276367	211146.640625
492.035156	210272.671875
490.793945	210416.343750
489.552734	210543.828125
488.311523	210125.546875
487.070312	210144.296875
485.828125	210668.312500
484.585938	210821.781250
483.343750	211144.218750
482.100586	210217.156250
480.857422	211233.531250
479.615234	210359.062500
478.371094	210743.640625
477.127930	209986.171875
475.883789	210053.078125
474.639648	210990.093750
473.395508	210689.078125
472.151367	211193.703125
470.906250	210420.765625
469.661133	211156.156250
468.416016	210030.125000
467.170898	210526.437500
465.924805	210767.656250
464.679688	209836.953125
463.433594	210108.281250
462.186523	209986.359375
460.940430	209994.843750
459.693359	209720.593750
458.446289	209955.609375
457.199219	208889.765625
455.951172	209289.156250
454.703125	209716.437500
453.455078	209103.921875
452.207031	209531.062500
450.958984	209197.109375
449.709961	209495.921875
448.460938	208253.359375
447.211914	208686.296875
445.961914	209039.015625
444.712891	208521.390625
443.462891	207785.937500
442.212891	208210.593750
440.961914	207593.406250
439.710938	207212.343750
438.460938	207249.109375
437.208984	207633.546875
435.958008	206851.078125
434.706055	206586.250000
433.455078	206313.515625
432.202148	206881.484375
430.950195	206373.218750
429.698242	205952.953125
428.445312	206520.640625
427.192383	204965.218750
425.938477	205536.859375
424.685547	205470.046875
423.431641	204278.593750
422.177734	205270.671875
420.923828	205038.468750
419.668945	205035.531250
418.414062	204506.562500
417.159180	205143.203125
415.904297	204110.453125
414.648438	204446.203125
413.393555	204250.203125
412.137695	204323.000000
410.880859	203736.984375
409.625000	203600.890625
408.368164	203715.531250
407.111328	204408.968750
405.854492	203576.718750
404.597656	203514.296875
403.339844	203519.484375
402.082031	203840.687500
400.824219	203029.015625
399.565430	204407.218750
398.307617	203989.062500
397.048828	203173.828125
395.790039	203830.343750
394.530273	203285.437500
393.271484	203433.500000
392.011719	202622.906250
390.750977	203092.468750
389.491211	203242.453125
388.230469	202944.078125
386.970703	203187.203125
385.708984	202896.859375
384.448242	203191.437500
383.186523	202689.109375
381.925781	202579.328125
380.664062	202049.562500
379.401367	202353.937500
378.139648	202046.203125
376.876953	201879.156250
375.614258	201425.109375
374.350586	201192.921875
373.087891	201873.125000
371.824219	202004.984375
370.560547	201889.500000
369.296875	201301.343750
368.032227	200895.312500
366.767578	201264.484375
365.502930	200575.921875
364.238281	199814.500000
362.972656	199956.375000
361.708008	200127.828125
360.441406	200076.015625
359.175781	200105.171875
357.910156	199624.875000
356.643555	200603.656250
355.376953	199099.046875
354.110352	199789.421875
352.842773	199305.578125
351.575195	199313.078125
350.307617	199393.562500
349.040039	198941.578125
347.772461	199923.062500
346.503906	199496.765625
345.235352	199529.796875
343.966797	199844.578125
342.697266	198862.968750
341.427734	198770.031250
340.158203	197907.125000
338.888672	197395.000000
337.619141	197032.687500
336.348633	197195.968750
335.078125	196646.859375
333.807617	196463.890625
332.536133	195981.984375
331.265625	196306.593750
329.994141	195449.328125
328.722656	195960.640625
327.450195	195481.125000
326.177734	195502.890625
324.905273	195544.296875
323.632812	195159.406250
322.360352	195405.093750
321.086914	194666.890625
319.813477	194676.984375
318.540039	194940.265625
317.266602	195001.296875
315.992188	199742.046875
314.717773	203039.062500
313.443359	194050.484375
312.167969	194278.296875
310.893555	193957.015625
309.618164	193614.281250
308.342773	193702.859375
307.066406	193638.546875
305.790039	192970.828125
304.514648	193635.328125
303.237305	192501.734375
301.960938	191644.656250
300.683594	192892.390625
299.406250	192622.734375
298.128906	192051.796875
296.851562	192130.640625
295.573242	191532.609375
294.294922	191374.859375
293.016602	191999.343750
291.738281	191215.921875
290.458984	190858.906250
289.179688	191039.468750
287.900391	190539.968750
286.620117	191259.687500
285.340820	190260.296875
284.060547	189854.953125
282.780273	189529.781250
281.499023	189755.234375
280.218750	189543.406250
278.937500	189302.375000
277.656250	188347.359375
276.374023	187695.046875
275.091797	187936.187500
273.810547	188105.078125
272.527344	187999.015625
271.245117	187095.796875
269.961914	188243.000000
268.678711	187172.500000
267.395508	187674.437500
266.112305	187282.203125
264.828125	186950.484375
263.543945	187526.140625
262.259766	187897.171875
260.975586	189099.062500
259.690430	190543.687500
258.405273	191680.406250
257.120117	193172.609375
255.833984	194670.062500
254.548828	195068.421875
253.262695	193763.734375
251.976562	192463.437500
250.689453	190036.578125
249.403320	188951.171875
248.116211	187804.015625
246.828125	187006.859375
245.541016	185644.968750
244.252930	185603.671875
242.964844	184700.609375
241.676758	184189.890625
240.388672	183799.640625
239.099609	183432.796875
237.810547	182916.765625
236.521484	182416.421875
235.231445	181850.359375
233.942383	181276.734375
232.652344	181573.484375
231.362305	180986.546875
230.071289	181994.187500
228.780273	180777.906250
227.489258	180119.781250
226.198242	180639.078125
224.907227	180275.453125
223.615234	180655.156250
222.323242	179469.265625
221.031250	179539.421875
219.738281	179114.359375
218.445312	179002.734375
217.152344	178009.453125
215.859375	178764.140625
214.566406	177521.937500
213.272461	177675.406250
211.978516	176926.546875
210.684570	176463.859375
209.389648	175445.109375
208.094727	175836.343750
206.799805	176072.968750
205.504883	175218.921875
204.209961	175662.062500
202.914062	174588.437500
201.618164	174371.750000
200.321289	175258.375000
199.025391	173826.750000
197.728516	173502.328125
196.431641	173754.390625
195.134766	172815.312500
193.836914	172161.750000
192.539062	171914.921875
191.241211	172238.328125
189.943359	171525.531250
188.644531	170870.765625
187.345703	170762.953125
186.046875	170485.796875
184.748047	170899.562500
183.448242	170710.984375
182.149414	169837.656250
180.848633	170359.000000
179.548828	169241.859375
178.248047	169543.921875
176.948242	169936.203125
175.646484	169532.734375
174.345703	169894.109375
173.043945	169661.750000
171.743164	168987.734375
170.440430	169199.203125
169.138672	168414.156250
167.835938	168694.734375
166.533203	168568.343750
165.230469	167687.906250
163.927734	167544.468750
162.624023	168417.640625
161.320312	166935.562500
160.016602	166792.328125
158.711914	166474.703125
157.408203	166046.031250
156.103516	165941.343750
154.798828	165411.375000
153.493164	165335.578125
152.187500	165232.984375
150.881836	164981.062500
149.576172	164505.265625
148.269531	163558.781250
146.963867	163628.796875
145.657227	163193.687500
144.349609	162965.312500
143.042969	161897.437500
141.735352	163512.703125
140.427734	162112.453125
139.120117	162100.437500
137.811523	161876.281250
136.502930	161342.671875
135.194336	160725.203125
133.885742	158832.109375
132.576172	158352.828125
131.266602	156378.812500
129.957031	154535.343750
128.647461	152434.937500
127.336914	150592.921875
126.026367	147570.703125
124.715820	145821.875000
123.405273	143200.281250
122.093750	140274.640625
120.782227	137289.109375
119.470703	133809.171875
