#Wave		#Intensity
1999.091797	150975.437500
1998.124023	151951.953125
1997.156250	151075.687500
1996.187500	150840.187500
1995.219727	151704.687500
1994.250977	152248.750000
1993.282227	152010.562500
1992.313477	151547.937500
1991.344727	151725.359375
1990.375977	152292.250000
1989.406250	152358.546875
1988.437500	153017.953125
1987.467773	152034.687500
1986.498047	151822.578125
1985.528320	152819.359375
1984.557617	152153.609375
1983.587891	152160.562500
1982.617188	152401.937500
1981.646484	152663.843750
1980.675781	152990.015625
1979.705078	153316.078125
1978.733398	152715.250000
1977.762695	152539.328125
1976.791016	153341.375000
1975.819336	153286.312500
1974.847656	153395.906250
1973.875000	153315.140625
1972.903320	153044.078125
1971.930664	153791.296875
1970.958984	152849.265625
1969.986328	152812.312500
1969.012695	153564.312500
1968.040039	153542.656250
1967.066406	153862.656250
1966.093750	153725.359375
1965.120117	153670.265625
1964.146484	154370.078125
1963.172852	154394.468750
1962.198242	153335.703125
1961.224609	154073.671875
1960.250000	154583.031250
1959.275391	153709.468750
1958.300781	153975.031250
1957.326172	154096.875000
1956.350586	154113.546875
1955.375977	154419.906250
1954.400391	154731.265625
1953.424805	155247.531250
1952.449219	154090.468750
1951.473633	154570.781250
1950.497070	154784.546875
1949.520508	155285.046875
1948.544922	154922.500000
1947.568359	154910.796875
1946.590820	154574.015625
1945.614258	154951.343750
1944.637695	155088.031250
1943.660156	156120.031250
1942.682617	155118.234375
1941.705078	154912.109375
1940.727539	155450.109375
1939.749023	155001.125000
1938.771484	154749.109375
1937.792969	155997.265625
1936.814453	155300.562500
1935.835938	155669.375000
1934.857422	155820.953125
1933.877930	154892.234375
1932.899414	155227.718750
1931.919922	155685.625000
1930.940430	155306.171875
1929.960938	155585.250000
1928.980469	155746.843750
1928.000977	155227.250000
1927.020508	156074.968750
1926.040039	155695.734375
1925.059570	155961.718750
1924.079102	156143.484375
1923.098633	156381.250000
1922.117188	155816.187500
1921.135742	155633.500000
1920.155273	156773.015625
1919.172852	156394.093750
1918.191406	155834.484375
1917.209961	155606.078125
1916.227539	156457.109375
1915.245117	155434.531250
1914.262695	156277.656250
1913.280273	156652.312500
1912.297852	157113.328125
1911.314453	156360.937500
1910.332031	155809.703125
1909.348633	156382.484375
1908.365234	155910.218750
1907.381836	156068.468750
1906.397461	156379.140625
1905.414062	156107.828125
1904.429688	156217.687500
1903.445312	156820.234375
1902.460938	156515.953125
1901.476562	155810.625000
1900.491211	156450.984375
1899.506836	156682.484375
1898.521484	156627.125000
1897.536133	157226.390625
1896.550781	156539.265625
1895.565430	156920.203125
1894.579102	156603.625000
1893.592773	157260.765625
1892.607422	158389.187500
1891.621094	156513.718750
1890.633789	156899.359375
1889.647461	156838.921875
1888.660156	157414.359375
1887.673828	156811.812500
1886.686523	157260.421875
1885.699219	157063.218750
1884.710938	156597.734375
1883.723633	157638.390625
1882.735352	157375.406250
1881.748047	157231.437500
1880.759766	156849.703125
1879.770508	157285.062500
1878.782227	157419.328125
1877.793945	157257.734375
1876.804688	157500.640625
1875.815430	156517.625000
1874.826172	157228.078125
1873.836914	157480.953125
1872.846680	157258.828125
1871.857422	157420.671875
1870.867188	157706.187500
1869.876953	158289.546875
1868.886719	157330.265625
1867.896484	157678.734375
1866.905273	157837.812500
1865.915039	157916.093750
1864.923828	157850.546875
1863.932617	158128.031250
1862.941406	158516.375000
1861.949219	157959.078125
1860.958008	158135.546875
1859.965820	158372.437500
1858.973633	158110.281250
1857.981445	158402.515625
1856.989258	158830.671875
1855.997070	158387.203125
1855.003906	158744.687500
1854.010742	159185.125000
1853.017578	158875.234375
1852.024414	159637.640625
1851.031250	159254.796875
1850.037109	159196.640625
1849.043945	159045.421875
1848.049805	159289.125000
1847.055664	160153.859375
1846.060547	158931.468750
1845.066406	159298.218750
1844.072266	159438.640625
1843.077148	159573.968750
1842.082031	159307.250000
1841.086914	159304.390625
1840.090820	159515.000000
1839.095703	159544.734375
1838.099609	159587.000000
1837.104492	159998.250000
1836.108398	160431.937500
1835.111328	159713.671875
1834.115234	160957.625000
1833.119141	159346.484375
1832.122070	160201.312500
1831.125000	159503.625000
1830.127930	160112.406250
1829.130859	160269.765625
1828.132812	160091.218750
1827.135742	160228.453125
1826.137695	160333.078125
1825.139648	160663.093750
1824.141602	160750.046875
1823.142578	159422.171875
1822.144531	160610.906250
1821.145508	160585.171875
1820.146484	160046.359375
1819.147461	160588.750000
1818.148438	160648.062500
1817.148438	161167.625000
1816.149414	161136.765625
1815.149414	160910.890625
1814.149414	161432.609375
1813.149414	161736.656250
1812.149414	160648.531250
1811.148438	160680.234375
1810.148438	161433.953125
1809.147461	161630.359375
1808.146484	161274.750000
1807.144531	161590.953125
1806.143555	161270.421875
1805.142578	161192.109375
1804.140625	161395.843750
1803.138672	161976.281250
1802.136719	161356.484375
1801.133789	161702.250000
1800.131836	160958.015625
1799.128906	161792.437500
1798.125977	161048.437500
1797.123047	161119.781250
1796.120117	161579.890625
1795.117188	162124.546875
1794.113281	161433.296875
1793.110352	161793.453125
1792.106445	161500.968750
1791.101562	162087.562500
1790.097656	162021.671875
1789.093750	161057.203125
1788.088867	160700.328125
1787.083984	161567.796875
1786.079102	162119.000000
1785.074219	161456.156250
1784.069336	161691.328125
1783.063477	161565.859375
1782.057617	161405.625000
1781.051758	162530.515625
1780.045898	161776.203125
1779.040039	161191.109375
1778.034180	161793.718750
1777.027344	161487.000000
1776.020508	162153.906250
1775.013672	161715.625000
1774.006836	161255.156250
1773.000000	161363.234375
1771.992188	162642.640625
1770.984375	161671.093750
1769.976562	161774.062500
1768.968750	161631.453125
1767.960938	161783.984375
1766.953125	161594.281250
1765.944336	161107.156250
1764.935547	161294.390625
1763.926758	161474.109375
1762.917969	162295.500000
1761.908203	162090.984375
1760.899414	161562.062500
1759.889648	161870.359375
1758.879883	161987.875000
1757.870117	161508.750000
1756.860352	161381.250000
1755.849609	161709.125000
1754.839844	161255.015625
1753.829102	161414.578125
1752.818359	160997.765625
1751.807617	161775.546875
1750.795898	162214.296875
1749.785156	162039.812500
1748.773438	161430.375000
1747.761719	162076.515625
1746.750000	161968.843750
1745.738281	162120.578125
1744.725586	161336.171875
1743.712891	161307.687500
1742.701172	161195.265625
1741.688477	161613.609375
1740.674805	161987.390625
1739.662109	161492.375000
1738.648438	161922.781250
1737.635742	161694.359375
1736.622070	161078.796875
1735.608398	161760.546875
1734.593750	162089.484375
1733.580078	162166.843750
1732.565430	161864.625000
1731.550781	161564.953125
1730.536133	161664.531250
1729.521484	161808.406250
1728.506836	161866.015625
1727.491211	161886.656250
1726.475586	162463.718750
1725.459961	162494.093750
1724.444336	161394.750000
1723.428711	162104.453125
1722.412109	162287.390625
1721.396484	162037.312500
1720.379883	161929.968750
1719.363281	161906.265625
1718.345703	162516.875000
1717.329102	162952.734375
1716.311523	163007.484375
1715.293945	161892.546875
1714.276367	161581.375000
1713.258789	162562.390625
1712.241211	162676.093750
1711.222656	162426.312500
1710.205078	162613.640625
1709.186523	162734.609375
1708.167969	162430.953125
1707.148438	162176.468750
1706.129883	162655.640625
1705.110352	163289.156250
1704.090820	163034.625000
1703.071289	162843.953125
1702.051758	162883.781250
1701.032227	162568.171875
1700.011719	162733.015625
1698.991211	163172.234375
1697.971680	163165.406250
1696.950195	163075.281250
1695.929688	162323.968750
1694.909180	162804.546875
1693.887695	162455.015625
1692.866211	163165.468750
1691.844727	162838.015625
1690.823242	163340.156250
1689.800781	162782.812500
1688.779297	163573.390625
1687.756836	163187.375000
1686.734375	163899.359375
1685.711914	163207.812500
1684.688477	164029.515625
1683.666016	163856.281250
1682.642578	163108.906250
1681.619141	164555.562500
1680.595703	163681.296875
1679.572266	163691.375000
1678.547852	163447.515625
1677.524414	162710.593750
1676.500000	163570.218750
1675.475586	163033.640625
1674.451172	163087.718750
1673.425781	163300.328125
1672.401367	163464.078125
1671.375977	163586.312500
1670.350586	163523.171875
1669.325195	163776.984375
1668.299805	163818.640625
1667.273438	163280.281250
1666.247070	162988.203125
1665.220703	163219.968750
1664.194336	163575.859375
1663.167969	163191.312500
1662.141602	163980.453125
1661.114258	163486.421875
1660.086914	163381.984375
1659.059570	163501.453125
1658.032227	163776.593750
1657.004883	164097.843750
1655.976562	163251.531250
1654.948242	163380.640625
1653.919922	163030.718750
1652.891602	162996.937500
1651.863281	163835.687500
1650.833984	162324.328125
1649.805664	162497.187500
1648.776367	163029.484375
1647.747070	162679.968750
1646.717773	163571.421875
1645.687500	162804.328125
1644.658203	162656.484375
1643.627930	162210.187500
1642.597656	162225.062500
1641.567383	163115.781250
1640.536133	162305.750000
1639.505859	162453.984375
1638.474609	162553.656250
1637.443359	162435.109375
1636.412109	161633.015625
1635.380859	161764.265625
1634.348633	162351.015625
1633.316406	162019.359375
1632.285156	161961.515625
1631.252930	161952.140625
1630.219727	162136.453125
1629.187500	162429.640625
1628.154297	161727.890625
1627.121094	162333.234375
1626.087891	161789.000000
1625.054688	162086.859375
1624.021484	161366.281250
1622.987305	161620.562500
1621.954102	162138.312500
1620.919922	162124.000000
1619.885742	161558.609375
1618.850586	162073.640625
1617.816406	161426.281250
1616.781250	162264.875000
1615.746094	161624.937500
1614.710938	161441.656250
1613.675781	161188.406250
1612.639648	161654.656250
1611.604492	160672.515625
1610.568359	160882.859375
1609.532227	161397.140625
1608.496094	161240.593750
1607.458984	161539.937500
1606.422852	161289.359375
1605.385742	160520.484375
1604.348633	161371.828125
1603.311523	161461.218750
1602.274414	161191.531250
1601.236328	161273.687500
1600.198242	160510.281250
1599.160156	161115.156250
1598.122070	161397.140625
1597.083984	161375.656250
1596.045898	161546.750000
1595.006836	161503.562500
1593.967773	160627.781250
1592.928711	161082.796875
1591.889648	160873.718750
1590.849609	161297.250000
1589.810547	161020.859375
1588.770508	160871.984375
1587.730469	160951.531250
1586.690430	161999.593750
1585.650391	161367.609375
1584.609375	161881.859375
1583.568359	162552.046875
1582.527344	161050.890625
1581.486328	161327.171875
1580.445312	161075.171875
1579.403320	161620.187500
1578.362305	162049.796875
1577.320312	161442.640625
1576.278320	161550.640625
1575.236328	162035.187500
1574.193359	162063.890625
1573.150391	161548.265625
1572.108398	161063.984375
1571.065430	161169.515625
1570.021484	161464.343750
1568.978516	161972.296875
1567.934570	162178.218750
1566.891602	161617.578125
1565.847656	161835.437500
1564.803711	162242.390625
1563.758789	162498.359375
1562.714844	161866.218750
1561.669922	162347.109375
1560.625000	161655.390625
1559.580078	161951.937500
1558.535156	161789.125000
1557.489258	162394.000000
1556.443359	161879.687500
1555.398438	162931.359375
1554.351562	161606.843750
1553.305664	162471.781250
1552.259766	162280.343750
1551.212891	161957.578125
1550.166016	162052.890625
1549.119141	162217.421875
1548.072266	162157.453125
1547.025391	162087.937500
1545.977539	162008.906250
1544.929688	162330.796875
1543.881836	162800.484375
1542.833984	162461.328125
1541.786133	161905.250000
1540.737305	162462.984375
1539.688477	162419.687500
1538.639648	162643.390625
1537.590820	161794.500000
1536.541992	162409.000000
1535.493164	162075.062500
1534.443359	162217.640625
1533.393555	163143.718750
1532.343750	162045.437500
1531.293945	162885.500000
1530.243164	162470.796875
1529.192383	161796.843750
1528.142578	162129.640625
1527.091797	162271.984375
1526.040039	162806.750000
1524.989258	162287.750000
1523.937500	162527.468750
1522.885742	162557.875000
1521.833984	162036.812500
1520.782227	162430.890625
1519.730469	162178.531250
1518.677734	162572.437500
1517.625000	161431.765625
1516.572266	162217.500000
1515.519531	162492.437500
1514.466797	161907.890625
1513.413086	162242.125000
1512.360352	161128.609375
1511.306641	162179.406250
1510.252930	161823.046875
1509.198242	161836.812500
1508.144531	161898.000000
1507.089844	161693.609375
1506.035156	160763.890625
1504.980469	161723.515625
1503.925781	161720.671875
1502.870117	160952.531250
1501.815430	161679.421875
1500.759766	161581.828125
1499.704102	161325.609375
1498.647461	161422.250000
1497.591797	161840.781250
1496.535156	161274.578125
1495.479492	161548.625000
1494.421875	160878.578125
1493.365234	161110.000000
1492.308594	161050.437500
1491.250977	161177.703125
1490.193359	160713.843750
1489.135742	160524.343750
1488.078125	160540.531250
1487.020508	160457.468750
1485.961914	160081.453125
1484.904297	160744.921875
1483.845703	160536.656250
1482.786133	160092.343750
1481.727539	160939.578125
1480.668945	160511.859375
1479.609375	160674.281250
1478.549805	161082.046875
1477.490234	160387.921875
1476.429688	160526.687500
1475.370117	159877.703125
1474.309570	159500.109375
1473.249023	160732.796875
1472.188477	160039.328125
1471.127930	160413.656250
1470.066406	159760.531250
1469.005859	160045.250000
1467.944336	160073.109375
1466.882812	159966.718750
1465.820312	159655.531250
1464.758789	159488.031250
1463.696289	159266.468750
1462.633789	159889.781250
1461.571289	159818.781250
1460.508789	159705.468750
1459.446289	159462.812500
1458.382812	159368.406250
1457.319336	160073.406250
1456.255859	159504.046875
1455.192383	159510.718750
1454.128906	159453.921875
1453.064453	159484.078125
1452.000000	159018.578125
1450.935547	159074.625000
1449.871094	159264.484375
1448.806641	159444.890625
1447.741211	158660.453125
1446.675781	159936.890625
1445.610352	158887.484375
1444.544922	159112.375000
1443.479492	159454.453125
1442.413086	159221.828125
1441.346680	158670.359375
1440.280273	158937.296875
1439.213867	159288.515625
1438.147461	158913.093750
1437.080078	158774.468750
1436.013672	158572.625000
1434.946289	158197.500000
1433.878906	158670.281250
1432.810547	158187.578125
1431.743164	158685.921875
1430.674805	158851.718750
1429.606445	158193.687500
1428.538086	158235.500000
1427.469727	158855.109375
1426.400391	158520.187500
1425.331055	158328.031250
1424.262695	158114.906250
1423.192383	157784.953125
1422.123047	159147.312500
1421.053711	159170.140625
1419.983398	158055.125000
1418.913086	157704.375000
1417.842773	158418.781250
1416.772461	157860.234375
1415.701172	157922.953125
1414.630859	158263.406250
1413.559570	158293.328125
1412.488281	157385.171875
1411.416016	157354.562500
1410.344727	157680.859375
1409.272461	158086.328125
1408.200195	157453.984375
1407.127930	157325.453125
1406.055664	157194.609375
1404.983398	156870.390625
1403.910156	157009.968750
1402.836914	157102.890625
1401.763672	157286.625000
1400.690430	158038.531250
1399.617188	157525.812500
1398.542969	157292.625000
1397.468750	157541.343750
1396.394531	157396.656250
1395.320312	156870.421875
1394.245117	156825.937500
1393.170898	157676.953125
1392.095703	156069.562500
1391.020508	157134.296875
1389.945312	157336.187500
1388.869141	156817.468750
1387.793945	157635.156250
1386.717773	157002.703125
1385.641602	157206.765625
1384.565430	156913.703125
1383.488281	157261.671875
1382.412109	157444.671875
1381.334961	156392.625000
1380.257812	156803.140625
1379.180664	156352.593750
1378.102539	156447.421875
1377.025391	156952.796875
1375.947266	156558.109375
1374.869141	156100.937500
1373.791016	156288.453125
1372.711914	155583.468750
1371.633789	156711.937500
1370.554688	156387.140625
1369.475586	155703.328125
1368.396484	156175.640625
1367.316406	156119.718750
1366.237305	155989.734375
1365.157227	155818.109375
1364.077148	155459.046875
1362.997070	156030.453125
1361.916016	155509.500000
1360.835938	156184.765625
1359.754883	155386.406250
1358.673828	155383.859375
1357.592773	155286.500000
1356.511719	155438.843750
1355.429688	155255.984375
1354.347656	156083.046875
1353.265625	154682.484375
1352.183594	155072.734375
1351.101562	154363.437500
1350.018555	155173.890625
1348.935547	154788.046875
1347.852539	154857.109375
1346.769531	155422.359375
1345.686523	157667.328125
1344.602539	159373.921875
1343.519531	156309.468750
1342.435547	154530.765625
1341.350586	154890.296875
1340.266602	154956.906250
1339.181641	154779.125000
1338.097656	154947.125000
1337.012695	154589.671875
1335.926758	154785.265625
1334.841797	155404.609375
1333.756836	154664.953125
1332.670898	154229.484375
1331.584961	154692.031250
1330.499023	154355.687500
1329.412109	154330.140625
1328.326172	154028.484375
1327.239258	154679.359375
1326.152344	154596.250000
1325.065430	154221.093750
1323.977539	154469.187500
1322.890625	154912.578125
1321.802734	154443.312500
1320.714844	153581.250000
1319.626953	154297.953125
1318.538086	153895.656250
1317.450195	153796.671875
1316.361328	153998.546875
1315.272461	153764.109375
1314.183594	154018.703125
1313.093750	154151.546875
1312.004883	153547.734375
1310.915039	154456.093750
1309.825195	153781.328125
1308.735352	153556.312500
1307.644531	153345.125000
1306.554688	152776.359375
1305.463867	153661.078125
1304.373047	152870.140625
1303.282227	153225.187500
1302.190430	153234.171875
1301.099609	153437.828125
1300.007812	153504.000000
1298.916016	153169.437500
1297.824219	152851.015625
1296.731445	153651.984375
1295.639648	153168.812500
1294.546875	152855.109375
1293.454102	152138.875000
1292.361328	152079.359375
1291.267578	153117.546875
1290.174805	152289.609375
1289.081055	152150.062500
1287.987305	152997.953125
1286.892578	152437.828125
1285.798828	152017.281250
1284.704102	152156.562500
1283.609375	152049.109375
1282.514648	151651.671875
1281.419922	151028.328125
1280.325195	151605.953125
1279.229492	151726.875000
1278.133789	151434.734375
1277.038086	151450.687500
1275.942383	151236.234375
1274.845703	150983.078125
1273.750000	150771.062500
1272.653320	151015.093750
1271.556641	150771.218750
1270.458984	150962.718750
1269.362305	150835.140625
1268.264648	151108.562500
1267.166992	150459.375000
1266.069336	150709.984375
1264.971680	150334.328125
1263.873047	150188.734375
1262.775391	150318.593750
1261.676758	150427.921875
1260.578125	150653.250000
1259.478516	150239.234375
1258.379883	149384.109375
1257.280273	150118.875000
1256.180664	149941.625000
1255.081055	150321.390625
1253.981445	149537.312500
1252.880859	149910.171875
1251.780273	149155.968750
1250.679688	150214.781250
1249.579102	149562.984375
1248.478516	149365.578125
1247.376953	149735.828125
1246.276367	149774.531250
1245.174805	149322.984375
1244.072266	148898.828125
1242.970703	149536.578125
1241.868164	148722.375000
1240.766602	148981.171875
1239.664062	149561.859375
1238.560547	149600.500000
1237.458008	149022.578125
1236.354492	149818.203125
1235.251953	149238.187500
1234.148438	149306.265625
1233.043945	149242.953125
1231.940430	148851.296875
1230.835938	149249.968750
1229.731445	149048.593750
1228.626953	148582.468750
1227.522461	149155.203125
1226.417969	149732.250000
1225.312500	149589.718750
1224.207031	149309.281250
1223.101562	148933.937500
1221.996094	149273.187500
1220.889648	148662.890625
1219.784180	149207.734375
1218.677734	149006.656250
1217.571289	148746.906250
1216.463867	149336.593750
1215.357422	148783.265625
1214.250000	148878.203125
1213.142578	149083.718750
1212.035156	148641.312500
1210.927734	148896.437500
1209.819336	149311.671875
1208.710938	149025.125000
1207.603516	148851.453125
1206.494141	148819.906250
1205.385742	148925.921875
1204.276367	148396.156250
1203.167969	148995.796875
1202.058594	148515.781250
1200.948242	148675.812500
1199.838867	148842.546875
1198.728516	148576.765625
1197.619141	148493.468750
1196.508789	148637.609375
1195.397461	148308.968750
1194.287109	148606.109375
1193.175781	149040.421875
1192.064453	148333.875000
1190.953125	148626.343750
1189.841797	148558.859375
1188.730469	149258.171875
1187.618164	148767.906250
1186.505859	148455.390625
1185.393555	148929.578125
1184.281250	148509.281250
1183.167969	148230.656250
1182.055664	149380.718750
1180.942383	149641.015625
1179.829102	148715.656250
1178.714844	148401.265625
1177.601562	148421.406250
1176.487305	148659.234375
1175.373047	148573.859375
1174.258789	148344.937500
1173.143555	147640.578125
1172.029297	147965.796875
1170.914062	148550.984375
1169.798828	148828.828125
1168.683594	148230.218750
1167.568359	148429.578125
1166.452148	148044.093750
1165.335938	147631.875000
1164.219727	147786.421875
1163.103516	147710.250000
1161.986328	147714.718750
1160.870117	147674.406250
1159.752930	147672.140625
1158.635742	148379.203125
1157.518555	147101.578125
1156.400391	147349.937500
1155.282227	147150.906250
1154.164062	147336.531250
1153.045898	147242.640625
1151.927734	147486.281250
1150.808594	146780.046875
1149.690430	146728.750000
1148.571289	146525.531250
1147.452148	146454.171875
1146.332031	146691.015625
1145.212891	146532.562500
1144.092773	146021.453125
1142.972656	146407.750000
1141.852539	146552.906250
1140.731445	147432.046875
1139.611328	146606.578125
1138.490234	146080.281250
1137.369141	146488.484375
1136.248047	145775.109375
1135.125977	145625.937500
1134.003906	145944.843750
1132.882812	145762.265625
1131.760742	145412.656250
1130.637695	145940.781250
1129.515625	145711.515625
1128.392578	145444.468750
1127.269531	146257.250000
1126.146484	145947.890625
1125.023438	145567.437500
1123.899414	145574.265625
1122.775391	145169.531250
1121.651367	145587.890625
1120.527344	144938.671875
1119.403320	145552.578125
1118.278320	144145.546875
1117.153320	144677.125000
1116.028320	144737.390625
1114.903320	145313.093750
1113.778320	144951.140625
1112.652344	144787.000000
1111.526367	145169.156250
1110.400391	144825.187500
1109.274414	144929.718750
1108.147461	144352.875000
1107.021484	144126.812500
1105.894531	144550.875000
1104.767578	145172.187500
1103.639648	144005.765625
1102.512695	144269.953125
1101.384766	144294.593750
1100.256836	144002.265625
1099.128906	144558.812500
1098.000000	144707.453125
1096.872070	143863.578125
1095.743164	144107.515625
1094.614258	143638.296875
1093.485352	144887.375000
1092.355469	144199.015625
1091.226562	143920.375000
1090.096680	144119.781250
1088.966797	144303.640625
1087.835938	144217.546875
1086.706055	144089.468750
1085.575195	144049.859375
1084.444336	143791.406250
1083.313477	143860.171875
1082.182617	143942.171875
1081.050781	143831.906250
1079.918945	144625.234375
1078.787109	143755.031250
1077.655273	144004.796875
1076.523438	144084.453125
1075.390625	144457.687500
1074.257812	144740.296875
1073.125000	143672.203125
1071.992188	143769.500000
1070.859375	143846.890625
1069.725586	144063.203125
1068.591797	143503.187500
1067.458008	143620.250000
1066.324219	144061.312500
1065.189453	144596.984375
1064.054688	143887.421875
1062.919922	144024.125000
1061.785156	143751.062500
1060.650391	144193.875000
1059.514648	143890.031250
1058.378906	143764.640625
1057.243164	144909.343750
1056.107422	144962.046875
1054.971680	144004.765625
1053.834961	144530.593750
1052.698242	144787.890625
1051.561523	144880.140625
1050.424805	144431.453125
1049.287109	144053.281250
1048.150391	144409.343750
1047.012695	143800.546875
1045.874023	143519.359375
1044.736328	143778.640625
1043.597656	143198.843750
1042.459961	143633.765625
1041.321289	143567.937500
1040.181641	143609.687500
1039.042969	143199.296875
1037.903320	143399.078125
1036.764648	143489.093750
1035.624023	142991.187500
1034.484375	143421.156250
1033.344727	142982.656250
1032.204102	142708.718750
1031.063477	143015.734375
1029.922852	143127.593750
1028.782227	143587.781250
1027.640625	142683.000000
1026.499023	142864.921875
1025.357422	142667.921875
1024.215820	143136.593750
1023.074219	142385.765625
1021.931641	142642.000000
1020.789062	143136.656250
1019.646484	142239.625000
1018.503906	142458.546875
1017.360352	143088.546875
1016.216797	142491.578125
1015.074219	142404.218750
1013.929688	142496.140625
1012.786133	142609.875000
1011.641602	142574.968750
1010.498047	142098.781250
1009.353516	142125.125000
1008.208008	141992.046875
1007.063477	141821.875000
1005.917969	142075.281250
1004.772461	142020.843750
1003.626953	141964.218750
1002.481445	142616.734375
1001.335938	141508.546875
1000.189453	142259.031250
999.042969	141886.187500
997.896484	142198.093750
996.749023	141616.109375
995.602539	141755.750000
994.455078	141936.734375
993.307617	141664.484375
992.160156	141300.828125
991.011719	142087.234375
989.864258	141577.734375
988.715820	142059.000000
987.567383	142200.515625
986.417969	142204.859375
985.269531	141434.578125
984.120117	141286.765625
982.970703	141186.859375
981.821289	141615.437500
980.670898	141841.625000
979.521484	141856.859375
978.371094	141263.515625
977.220703	141776.484375
976.070312	141798.218750
974.918945	141783.015625
973.768555	141850.359375
972.617188	141717.875000
971.464844	141806.890625
970.313477	140919.062500
969.162109	141743.906250
968.009766	141602.828125
966.857422	141385.875000
965.705078	141960.718750
964.551758	141591.968750
963.398438	141646.156250
962.246094	141665.625000
961.092773	141210.406250
959.938477	141470.484375
958.785156	141225.625000
957.630859	141006.843750
956.476562	141006.890625
955.322266	141476.843750
954.166992	141312.250000
953.012695	140786.203125
951.857422	141593.546875
950.702148	141216.937500
949.546875	140883.734375
948.390625	141662.468750
947.235352	141714.250000
946.079102	141435.171875
944.921875	141123.765625
943.765625	140959.453125
942.609375	140550.984375
941.452148	141469.343750
940.294922	140942.093750
939.137695	141270.359375
937.979492	140797.328125
936.821289	141309.015625
935.664062	140656.953125
934.504883	141013.078125
933.346680	140492.937500
932.188477	140223.250000
931.029297	140723.765625
929.870117	140445.500000
928.710938	140156.546875
927.550781	139934.531250
926.391602	140477.812500
925.231445	140352.781250
924.071289	139842.093750
922.910156	140833.187500
921.750000	140316.125000
920.588867	140171.812500
919.427734	140197.640625
918.266602	139962.984375
917.105469	139362.500000
915.943359	139433.640625
914.781250	139620.937500
913.619141	139472.578125
912.457031	139360.828125
911.294922	139588.875000
910.131836	139560.968750
908.968750	139993.093750
907.805664	139354.750000
906.642578	139694.343750
905.478516	138993.968750
904.314453	139245.421875
903.150391	139193.968750
901.986328	139653.546875
900.821289	138646.687500
899.657227	138425.765625
898.492188	138513.968750
897.327148	138655.765625
896.161133	138926.218750
894.996094	138999.234375
893.830078	138701.234375
892.664062	138922.203125
891.498047	138560.000000
890.331055	138497.984375
889.165039	139447.421875
887.998047	138461.843750
886.831055	138138.515625
885.663086	138164.406250
884.496094	138580.000000
883.328125	138967.593750
882.160156	138316.906250
880.992188	138409.062500
879.824219	137985.515625
878.655273	138146.140625
877.486328	138437.171875
876.317383	138122.906250
875.148438	138375.328125
873.978516	138240.734375
872.808594	138482.359375
871.638672	138411.890625
870.468750	138382.046875
869.298828	137820.296875
868.127930	138420.593750
866.957031	137780.015625
865.786133	137746.015625
864.615234	138644.812500
863.443359	138935.046875
862.272461	137861.671875
861.100586	138337.515625
859.927734	138247.953125
858.755859	138676.625000
857.583008	139294.906250
856.411133	138821.468750
855.237305	138450.500000
854.064453	138744.546875
852.891602	138989.468750
851.717773	138505.750000
850.543945	139430.031250
849.370117	138648.281250
848.195312	138905.796875
847.021484	139456.953125
845.846680	138249.968750
844.671875	138828.687500
843.496094	139183.812500
842.321289	139428.187500
841.145508	138453.875000
839.969727	138995.968750
838.793945	138874.578125
837.618164	138274.984375
836.441406	139265.187500
835.264648	139090.671875
834.087891	139666.093750
832.911133	139213.328125
831.733398	138416.687500
830.555664	138560.906250
829.377930	138543.734375
828.200195	138934.062500
827.022461	139356.062500
825.843750	138897.437500
824.665039	139198.375000
823.486328	139564.921875
822.307617	138760.875000
821.127930	138983.203125
819.949219	138741.250000
818.769531	139198.718750
817.588867	140103.093750
816.409180	139441.593750
815.228516	138886.234375
814.047852	139544.500000
812.867188	139319.609375
811.686523	138969.890625
810.504883	138654.171875
809.324219	139094.000000
808.142578	139313.625000
806.959961	139167.218750
805.778320	139338.093750
804.595703	138633.500000
803.413086	139233.562500
802.230469	138662.406250
801.047852	138621.890625
799.864258	138786.343750
798.680664	138665.531250
797.497070	139148.828125
796.313477	139068.109375
795.129883	138582.015625
793.945312	138758.953125
792.760742	138781.750000
791.576172	139038.765625
790.390625	138645.859375
789.206055	138423.937500
788.020508	138529.015625
786.834961	138929.234375
785.649414	138812.796875
784.462891	139130.593750
783.276367	138706.453125
782.089844	138547.953125
780.903320	138406.359375
779.716797	138094.203125
778.529297	138477.109375
777.341797	137874.468750
776.154297	137952.015625
774.966797	138322.078125
773.778320	138216.421875
772.590820	138344.328125
771.402344	137895.812500
770.212891	137830.234375
769.024414	138378.687500
767.834961	138502.234375
766.645508	138108.656250
765.456055	138148.140625
764.266602	138542.703125
763.076172	138277.453125
761.886719	137888.375000
760.696289	137738.843750
759.504883	138576.187500
758.314453	137918.562500
757.123047	137364.000000
755.931641	138312.156250
754.740234	137117.796875
753.548828	138243.937500
752.356445	138224.515625
751.164062	137942.984375
749.971680	137766.375000
748.779297	138042.593750
747.585938	138463.312500
746.392578	137427.593750
745.199219	138160.406250
744.005859	137611.062500
742.812500	137870.265625
741.618164	137677.093750
740.423828	137314.437500
739.229492	137611.218750
738.035156	138096.203125
736.839844	137536.984375
735.644531	137969.500000
734.449219	137644.734375
733.253906	137625.375000
732.058594	137971.906250
730.862305	138169.875000
729.666016	138194.296875
728.469727	138162.296875
727.272461	138111.500000
726.076172	137388.156250
724.878906	137011.718750
723.681641	137253.453125
722.484375	137743.515625
721.286133	137292.078125
720.087891	137648.390625
718.889648	137416.187500
717.691406	137524.093750
716.493164	137598.578125
715.293945	137673.031250
714.094727	137751.609375
712.895508	137557.109375
711.695312	137546.046875
710.496094	138403.890625
709.295898	137740.609375
708.095703	137608.703125
706.895508	137785.062500
705.694336	137449.140625
704.493164	137856.515625
703.291992	138043.109375
702.090820	137744.765625
700.889648	137771.093750
699.687500	137462.484375
698.485352	138495.468750
697.283203	137671.140625
696.081055	137770.203125
694.877930	137478.437500
693.674805	137471.500000
692.471680	137742.984375
691.268555	137499.156250
690.065430	137481.812500
688.861328	137697.046875
687.657227	137729.484375
686.453125	137830.421875
685.248047	137304.484375
684.043945	137502.984375
682.838867	137678.562500
681.633789	137769.031250
680.427734	137797.234375
679.222656	137560.000000
678.016602	137673.218750
676.810547	137921.125000
675.604492	137632.171875
674.397461	138062.328125
673.190430	137197.531250
671.983398	137387.312500
670.776367	137850.375000
669.569336	137495.421875
668.361328	137974.843750
667.153320	137456.468750
665.945312	137443.218750
664.737305	137475.468750
663.528320	136967.796875
662.319336	137273.109375
661.110352	137280.546875
659.901367	137443.031250
658.692383	136621.546875
657.482422	137937.250000
656.272461	136822.546875
655.062500	137036.609375
653.851562	137110.140625
652.641602	137059.734375
651.430664	137331.421875
650.219727	137324.312500
649.007812	136918.875000
647.796875	136637.390625
646.584961	136715.000000
645.373047	136703.875000
644.161133	136428.750000
642.948242	136578.500000
641.735352	136717.890625
640.522461	136560.390625
639.309570	135945.437500
638.096680	136573.171875
636.882812	136337.484375
635.668945	136386.125000
634.455078	136720.984375
633.241211	136246.546875
632.026367	135523.218750
630.811523	136426.062500
629.596680	136126.843750
628.381836	136047.875000
627.166016	135691.234375
625.950195	135863.265625
624.734375	135673.328125
623.518555	135814.453125
622.302734	136002.781250
621.085938	135564.250000
619.869141	135464.890625
618.652344	135833.937500
617.435547	135457.281250
616.217773	135900.109375
615.000000	135837.703125
613.782227	135611.078125
612.564453	136408.671875
611.345703	135285.312500
610.126953	135245.593750
608.908203	135103.328125
607.689453	135564.062500
606.469727	135577.609375
605.250977	135529.656250
604.031250	135604.687500
602.810547	135452.203125
601.590820	135193.250000
600.370117	134823.750000
599.149414	135519.421875
597.928711	135502.203125
596.708008	135128.734375
595.486328	135658.125000
594.264648	135902.843750
593.042969	135300.328125
591.821289	135745.484375
590.598633	135670.937500
589.376953	135886.812500
588.154297	135885.843750
586.930664	135964.609375
585.708008	135920.718750
584.484375	135654.078125
583.260742	136110.796875
582.037109	136185.359375
580.813477	135982.109375
579.588867	135760.562500
578.364258	135908.609375
577.139648	136483.234375
575.914062	135459.640625
574.689453	136270.796875
573.463867	135688.265625
572.238281	135691.343750
571.012695	136559.093750
569.786133	136188.875000
568.559570	136206.109375
567.333008	136129.578125
566.106445	136656.250000
564.878906	136449.250000
563.652344	136403.250000
562.424805	135844.031250
561.197266	136189.109375
559.968750	136491.296875
558.740234	136946.031250
557.512695	137337.500000
556.283203	136969.859375
555.054688	137025.500000
553.825195	137028.218750
552.595703	137510.859375
551.366211	136992.984375
550.136719	137135.953125
548.906250	136730.109375
547.676758	136448.359375
546.446289	136223.609375
545.214844	136258.937500
543.984375	135957.109375
542.752930	135143.703125
541.521484	135832.890625
540.290039	134569.203125
539.057617	135242.000000
537.826172	134798.578125
536.593750	133937.437500
535.361328	134230.671875
534.127930	134505.546875
532.894531	134196.390625
531.662109	134116.406250
530.427734	134139.812500
529.194336	134134.843750
527.959961	133623.375000
526.726562	133638.734375
525.492188	133415.109375
524.256836	134086.531250
523.022461	133496.484375
521.787109	133570.531250
520.551758	133610.140625
519.316406	133269.343750
518.080078	132774.937500
516.843750	132733.765625
515.607422	132472.171875
514.371094	132946.609375
513.134766	133103.484375
511.897461	132809.625000
510.660156	132691.656250
509.422852	132525.250000
508.184570	133053.718750
506.947266	132976.156250
505.708984	132626.031250
504.470703	132641.406250
503.231445	132622.468750
501.993164	132831.562500
500.753906	132382.843750
499.514648	132172.312500
498.274414	132522.515625
497.035156	132578.203125
495.794922	132793.109375
494.554688	132657.218750
493.314453	132489.125000
492.073242	133169.359375
490.832031	132930.718750
489.590820	132526.984375
488.349609	132514.078125
487.108398	132603.843750
485.866211	132741.890625
484.624023	133143.531250
483.381836	132792.437500
482.138672	132896.140625
480.896484	132492.906250
479.653320	133346.765625
478.410156	133275.359375
477.166016	132876.281250
475.921875	133247.171875
474.678711	132464.406250
473.433594	133112.500000
472.189453	132681.593750
470.944336	132594.281250
469.700195	132944.765625
468.455078	132783.140625
467.208984	132798.218750
465.963867	132712.937500
464.717773	132854.421875
463.471680	133264.687500
462.224609	132910.562500
460.978516	133142.156250
459.731445	132455.343750
458.484375	132211.828125
457.237305	132164.796875
455.989258	132272.093750
454.742188	132195.015625
453.494141	132053.859375
452.245117	132022.890625
450.997070	131919.859375
449.748047	131260.281250
448.499023	131870.000000
447.250000	131767.031250
446.000977	131307.937500
444.750977	131435.156250
443.500977	131636.328125
442.250977	131191.484375
441.000000	130710.828125
439.750000	130844.039062
438.499023	130303.656250
437.248047	131340.078125
435.996094	130723.875000
434.745117	130515.390625
433.493164	130159.187500
432.241211	130266.351562
430.989258	130143.890625
429.736328	130358.789062
428.483398	130202.414062
427.230469	129160.226562
425.977539	129686.359375
424.723633	129753.570312
423.469727	129872.585938
422.215820	129752.312500
420.961914	129843.367188
419.708008	129840.718750
418.453125	129232.320312
417.198242	129432.968750
415.942383	129205.304688
414.687500	129423.796875
413.431641	129345.539062
412.175781	129340.953125
410.919922	128444.703125
409.664062	128555.703125
408.407227	128760.156250
407.150391	129428.000000
405.893555	129371.664062
404.635742	129599.687500
403.378906	128781.906250
402.121094	129481.023438
400.862305	128665.554688
399.604492	129209.429688
398.345703	129057.812500
397.086914	129226.015625
395.828125	129165.781250
394.569336	128114.843750
393.309570	128767.460938
392.049805	129072.507812
390.790039	129020.257812
389.530273	128809.312500
388.269531	128786.875000
387.008789	128919.132812
385.748047	129075.117188
384.487305	128457.906250
383.225586	128306.695312
381.963867	128466.656250
380.702148	127885.554688
379.440430	128390.195312
378.177734	127987.562500
376.915039	128438.523438
375.652344	128069.679688
374.389648	128069.132812
373.126953	128387.203125
371.863281	127882.031250
370.599609	127402.765625
369.334961	127186.726562
368.071289	127492.835938
366.806641	127328.265625
365.541992	127248.742188
364.277344	127378.750000
363.011719	126678.773438
361.746094	127032.070312
360.480469	126636.601562
359.214844	127035.179688
357.949219	126780.039062
356.682617	126371.007812
355.416016	126745.710938
354.149414	126636.781250
352.881836	126239.828125
351.614258	126089.601562
350.346680	126217.515625
349.079102	126487.351562
347.811523	126039.437500
346.542969	125885.398438
345.274414	126208.335938
344.005859	125597.171875
342.736328	125494.507812
341.466797	124824.609375
340.197266	125822.937500
338.927734	125824.617188
337.658203	125338.101562
336.387695	125099.742188
335.117188	124772.921875
333.846680	124949.875000
332.575195	124656.632812
331.304688	124564.093750
330.033203	124202.210938
328.761719	124412.531250
327.489258	124388.867188
326.216797	124862.398438
324.944336	124416.218750
323.671875	123887.695312
322.399414	124292.289062
321.125977	124423.773438
319.852539	124517.890625
318.579102	124201.726562
317.305664	124552.937500
316.031250	124062.242188
314.756836	123885.609375
313.482422	123559.968750
312.207031	123789.421875
310.932617	123787.429688
309.657227	124067.710938
308.381836	123411.031250
307.105469	123675.593750
305.830078	124090.898438
304.553711	123442.414062
303.277344	122735.406250
302.000000	123056.656250
300.722656	122708.242188
299.446289	122806.218750
298.167969	122622.359375
296.890625	122246.812500
295.612305	121961.398438
294.333984	122155.257812
293.055664	122102.648438
291.777344	122020.734375
290.498047	121426.703125
289.218750	121841.335938
287.939453	121399.960938
286.660156	120968.523438
285.379883	121396.664062
284.099609	121033.726562
282.819336	121080.937500
281.539062	120476.125000
280.257812	120556.601562
278.976562	119846.734375
277.695312	119860.945312
276.413086	119605.968750
275.131836	119862.039062
273.849609	119965.921875
272.567383	120058.062500
271.284180	119542.031250
270.001953	119569.890625
268.718750	119858.820312
267.435547	119557.390625
266.151367	119604.695312
264.868164	119392.984375
263.583984	119222.234375
262.298828	120244.765625
261.014648	119330.484375
259.729492	120498.523438
258.444336	120956.039062
257.159180	121174.132812
255.874023	121559.382812
254.587891	121028.710938
253.301758	121190.281250
252.015625	120687.078125
250.729492	119945.054688
249.442383	119654.039062
248.155273	118914.421875
246.868164	117967.289062
245.581055	117911.742188
244.292969	117642.671875
243.004883	117785.179688
241.716797	117789.843750
240.427734	117773.156250
239.139648	117539.210938
237.850586	117185.101562
236.560547	116615.882812
235.271484	116616.859375
233.981445	116517.031250
232.691406	116343.601562
231.401367	116267.109375
230.111328	116217.757812
228.820312	116511.250000
227.529297	115828.625000
226.238281	115897.476562
224.946289	115553.976562
223.655273	115582.203125
222.363281	115950.968750
221.070312	115224.578125
219.778320	115575.859375
218.485352	114992.914062
217.192383	114404.382812
215.899414	114191.109375
214.605469	113461.859375
213.312500	114288.492188
212.018555	114166.148438
210.723633	114047.718750
209.429688	113728.468750
208.134766	113411.265625
206.839844	112854.781250
205.544922	112506.976562
204.249023	112607.015625
202.954102	112313.406250
201.658203	112181.937500
200.361328	112245.328125
199.065430	111437.054688
197.768555	111836.023438
196.471680	111831.953125
195.174805	111363.406250
193.876953	111238.023438
192.579102	111045.257812
191.281250	110519.335938
189.983398	110367.203125
188.684570	110708.039062
187.385742	110515.500000
186.086914	110357.671875
184.788086	110211.445312
183.488281	110211.484375
182.188477	110113.421875
180.888672	109782.679688
179.588867	109559.742188
178.288086	109879.015625
176.988281	109423.554688
175.686523	109275.742188
174.385742	109612.164062
173.083984	109174.289062
171.782227	109312.765625
170.480469	109074.820312
169.178711	109109.578125
167.875977	109128.960938
166.573242	108252.085938
165.270508	108492.273438
163.967773	108145.328125
162.664062	108433.390625
161.360352	108508.468750
160.056641	107807.000000
158.751953	107456.601562
157.448242	107623.804688
156.143555	107547.578125
154.838867	106931.109375
153.533203	107732.328125
152.227539	106531.937500
150.921875	106170.664062
149.616211	106445.093750
148.310547	106371.062500
147.003906	105835.867188
145.697266	105696.921875
144.390625	105366.734375
143.083008	105642.945312
141.775391	105592.062500
140.467773	105424.570312
139.160156	105828.664062
137.851562	104955.992188
136.542969	104484.906250
135.234375	104655.867188
133.925781	103205.187500
132.616211	102413.875000
131.307617	101874.882812
129.998047	101045.945312
128.687500	100016.929688
127.377930	99064.632812
126.067383	97778.828125
124.756836	96550.742188
123.445312	95477.593750
122.133789	94319.046875
120.823242	90980.132812
119.510742	87678.718750
