#Wave		#Intensity
1999.091797	18026.533203
1998.124023	18129.867188
1997.156250	18025.974609
1996.187500	18128.712891
1995.219727	18280.472656
1994.250977	18238.562500
1993.282227	18111.492188
1992.313477	18175.429688
1991.344727	18327.074219
1990.375977	18089.123047
1989.406250	18240.726562
1988.437500	18343.277344
1987.467773	18275.619141
1986.498047	18192.517578
1985.528320	18186.767578
1984.557617	18003.203125
1983.587891	18257.722656
1982.617188	18311.212891
1981.646484	18192.113281
1980.675781	18286.798828
1979.705078	18265.585938
1978.733398	18455.474609
1977.762695	18246.343750
1976.791016	18217.425781
1975.819336	18237.404297
1974.847656	18283.101562
1973.875000	18210.464844
1972.903320	18294.722656
1971.930664	18414.947266
1970.958984	18098.103516
1969.986328	18408.521484
1969.012695	18469.554688
1968.040039	18245.361328
1967.066406	18565.867188
1966.093750	18328.890625
1965.120117	18407.869141
1964.146484	18158.166016
1963.172852	18293.623047
1962.198242	18287.861328
1961.224609	18679.875000
1960.250000	18317.398438
1959.275391	18609.216797
1958.300781	18485.416016
1957.326172	18592.460938
1956.350586	18391.783203
1955.375977	18401.388672
1954.400391	18713.439453
1953.424805	18374.458984
1952.449219	18435.306641
1951.473633	18831.724609
1950.497070	18549.250000
1949.520508	18353.941406
1948.544922	18327.691406
1947.568359	18736.648438
1946.590820	18587.480469
1945.614258	18538.167969
1944.637695	18463.287109
1943.660156	18209.355469
1942.682617	18651.224609
1941.705078	18128.828125
1940.727539	18644.705078
1939.749023	18521.294922
1938.771484	18707.199219
1937.792969	18394.710938
1936.814453	18440.041016
1935.835938	18763.810547
1934.857422	18415.714844
1933.877930	18604.025391
1932.899414	18501.193359
1931.919922	18674.105469
1930.940430	18642.763672
1929.960938	18716.062500
1928.980469	18674.515625
1928.000977	18673.800781
1927.020508	18446.080078
1926.040039	18463.255859
1925.059570	18531.417969
1924.079102	18525.626953
1923.098633	18698.255859
1922.117188	18613.437500
1921.135742	18836.947266
1920.155273	18545.785156
1919.172852	18669.892578
1918.191406	18434.884766
1917.209961	18602.250000
1916.227539	18443.707031
1915.245117	18649.191406
1914.262695	18490.693359
1913.280273	18703.728516
1912.297852	18705.542969
1911.314453	18697.181641
1910.332031	18836.320312
1909.348633	18738.945312
1908.365234	18667.027344
1907.381836	18559.548828
1906.397461	18563.923828
1905.414062	18631.816406
1904.429688	18610.771484
1903.445312	18505.914062
1902.460938	18477.279297
1901.476562	18674.626953
1900.491211	18727.205078
1899.506836	18975.201172
1898.521484	18543.005859
1897.536133	18851.841797
1896.550781	18909.421875
1895.565430	18698.126953
1894.579102	18522.408203
1893.592773	18610.441406
1892.607422	18777.027344
1891.621094	18761.064453
1890.633789	18803.392578
1889.647461	18855.837891
1888.660156	18677.738281
1887.673828	18778.310547
1886.686523	18775.019531
1885.699219	18556.515625
1884.710938	18702.621094
1883.723633	18980.287109
1882.735352	18794.757812
1881.748047	18639.654297
1880.759766	18810.935547
1879.770508	19171.851562
1878.782227	18859.974609
1877.793945	18889.537109
1876.804688	19070.763672
1875.815430	18807.087891
1874.826172	18631.949219
1873.836914	18499.824219
1872.846680	18708.777344
1871.857422	18836.833984
1870.867188	18717.367188
1869.876953	19178.654297
1868.886719	18718.375000
1867.896484	18747.902344
1866.905273	18792.560547
1865.915039	18731.232422
1864.923828	18707.763672
1863.932617	19017.232422
1862.941406	18799.546875
1861.949219	18962.654297
1860.958008	18442.550781
1859.965820	18817.376953
1858.973633	19018.191406
1857.981445	18881.318359
1856.989258	18872.964844
1855.997070	18794.093750
1855.003906	18901.595703
1854.010742	18797.566406
1853.017578	18960.408203
1852.024414	18974.697266
1851.031250	18757.470703
1850.037109	18907.652344
1849.043945	19241.414062
1848.049805	19067.007812
1847.055664	18787.046875
1846.060547	18869.230469
1845.066406	18878.486328
1844.072266	19103.882812
1843.077148	19020.115234
1842.082031	19051.949219
1841.086914	18933.048828
1840.090820	19037.720703
1839.095703	19009.263672
1838.099609	18993.371094
1837.104492	19097.974609
1836.108398	19107.167969
1835.111328	19005.945312
1834.115234	18862.105469
1833.119141	19240.080078
1832.122070	19337.019531
1831.125000	19238.332031
1830.127930	19174.779297
1829.130859	19113.753906
1828.132812	18909.890625
1827.135742	18961.695312
1826.137695	19023.501953
1825.139648	19233.080078
1824.141602	19132.021484
1823.142578	19041.013672
1822.144531	19040.169922
1821.145508	18951.712891
1820.146484	19163.617188
1819.147461	18839.951172
1818.148438	19086.824219
1817.148438	19251.064453
1816.149414	19090.115234
1815.149414	19264.296875
1814.149414	19005.894531
1813.149414	19185.027344
1812.149414	19309.113281
1811.148438	19203.265625
1810.148438	19244.857422
1809.147461	19321.404297
1808.146484	19303.019531
1807.144531	19242.191406
1806.143555	19233.810547
1805.142578	19068.175781
1804.140625	19152.169922
1803.138672	19338.439453
1802.136719	19160.396484
1801.133789	19281.744141
1800.131836	19023.964844
1799.128906	19289.917969
1798.125977	19361.314453
1797.123047	19457.611328
1796.120117	19190.009766
1795.117188	19351.087891
1794.113281	19240.552734
1793.110352	19419.000000
1792.106445	19136.648438
1791.101562	19237.859375
1790.097656	19286.751953
1789.093750	19273.398438
1788.088867	19098.283203
1787.083984	19423.369141
1786.079102	19121.408203
1785.074219	19197.636719
1784.069336	19149.488281
1783.063477	19258.007812
1782.057617	19078.103516
1781.051758	18990.230469
1780.045898	19317.414062
1779.040039	19102.804688
1778.034180	19084.533203
1777.027344	19247.589844
1776.020508	18990.884766
1775.013672	19049.613281
1774.006836	19368.988281
1773.000000	19358.128906
1771.992188	19466.390625
1770.984375	19160.246094
1769.976562	19387.583984
1768.968750	19344.478516
1767.960938	19088.113281
1766.953125	19300.464844
1765.944336	19398.703125
1764.935547	19206.906250
1763.926758	19218.388672
1762.917969	18987.044922
1761.908203	19062.968750
1760.899414	19235.464844
1759.889648	19147.873047
1758.879883	19288.103516
1757.870117	19165.873047
1756.860352	19362.978516
1755.849609	19089.818359
1754.839844	19249.751953
1753.829102	19083.082031
1752.818359	19297.373047
1751.807617	19402.777344
1750.795898	18894.958984
1749.785156	19257.492188
1748.773438	19217.019531
1747.761719	19137.019531
1746.750000	19190.468750
1745.738281	19273.542969
1744.725586	19561.587891
1743.712891	19197.593750
1742.701172	19250.990234
1741.688477	19116.755859
1740.674805	19318.238281
1739.662109	19287.681641
1738.648438	19202.855469
1737.635742	19241.400391
1736.622070	19183.740234
1735.608398	19306.117188
1734.593750	19201.619141
1733.580078	19501.435547
1732.565430	19219.482422
1731.550781	19174.195312
1730.536133	19296.460938
1729.521484	19416.220703
1728.506836	19277.328125
1727.491211	19475.845703
1726.475586	19487.177734
1725.459961	19131.720703
1724.444336	19551.664062
1723.428711	19250.457031
1722.412109	19360.230469
1721.396484	19440.443359
1720.379883	19498.494141
1719.363281	19300.785156
1718.345703	19297.373047
1717.329102	19239.880859
1716.311523	19334.789062
1715.293945	19151.988281
1714.276367	19512.214844
1713.258789	19299.968750
1712.241211	19367.779297
1711.222656	19283.322266
1710.205078	19414.941406
1709.186523	19428.691406
1708.167969	19707.490234
1707.148438	19480.708984
1706.129883	19482.169922
1705.110352	19397.777344
1704.090820	19705.812500
1703.071289	19356.583984
1702.051758	19953.808594
1701.032227	19455.136719
1700.011719	19400.228516
1698.991211	19399.246094
1697.971680	19591.804688
1696.950195	19627.527344
1695.929688	19290.986328
1694.909180	19444.281250
1693.887695	19340.464844
1692.866211	19390.892578
1691.844727	19389.906250
1690.823242	19398.707031
1689.800781	19515.148438
1688.779297	19345.365234
1687.756836	19481.337891
1686.734375	19695.503906
1685.711914	19462.214844
1684.688477	19334.111328
1683.666016	19357.568359
1682.642578	19398.121094
1681.619141	19529.048828
1680.595703	19532.916016
1679.572266	19324.320312
1678.547852	19491.814453
1677.524414	19478.595703
1676.500000	19382.394531
1675.475586	19513.179688
1674.451172	19487.763672
1673.425781	19450.158203
1672.401367	19451.587891
1671.375977	19635.916016
1670.350586	19376.425781
1669.325195	19382.742188
1668.299805	19391.494141
1667.273438	19478.222656
1666.247070	19443.095703
1665.220703	19456.701172
1664.194336	19363.132812
1663.167969	19437.626953
1662.141602	19590.003906
1661.114258	19479.419922
1660.086914	19626.867188
1659.059570	19431.144531
1658.032227	19371.738281
1657.004883	19412.089844
1655.976562	19615.380859
1654.948242	19538.949219
1653.919922	19394.468750
1652.891602	19388.597656
1651.863281	19290.371094
1650.833984	19537.238281
1649.805664	19487.611328
1648.776367	19503.585938
1647.747070	19303.400391
1646.717773	19826.912109
1645.687500	19175.158203
1644.658203	19414.496094
1643.627930	19622.199219
1642.597656	19470.697266
1641.567383	19321.673828
1640.536133	19577.792969
1639.505859	19305.113281
1638.474609	19379.281250
1637.443359	19373.416016
1636.412109	19377.248047
1635.380859	19434.396484
1634.348633	19157.134766
1633.316406	19202.187500
1632.285156	19223.000000
1631.252930	19488.408203
1630.219727	19426.833984
1629.187500	19503.275391
1628.154297	19427.195312
1627.121094	19339.041016
1626.087891	19410.615234
1625.054688	19162.824219
1624.021484	19408.556641
1622.987305	19269.679688
1621.954102	19346.048828
1620.919922	19318.435547
1619.885742	19138.554688
1618.850586	19529.070312
1617.816406	19153.500000
1616.781250	19331.281250
1615.746094	19170.845703
1614.710938	19155.363281
1613.675781	19055.378906
1612.639648	19107.515625
1611.604492	19210.320312
1610.568359	19190.011719
1609.532227	19314.478516
1608.496094	19414.777344
1607.458984	19288.316406
1606.422852	19451.281250
1605.385742	19175.369141
1604.348633	19251.509766
1603.311523	19277.009766
1602.274414	19312.138672
1601.236328	19282.199219
1600.198242	19264.316406
1599.160156	19328.328125
1598.122070	18999.798828
1597.083984	19340.712891
1596.045898	19094.142578
1595.006836	18975.218750
1593.967773	19145.101562
1592.928711	19343.792969
1591.889648	19260.968750
1590.849609	19437.923828
1589.810547	19042.503906
1588.770508	19238.666016
1587.730469	19427.546875
1586.690430	19407.265625
1585.650391	19454.273438
1584.609375	19342.695312
1583.568359	19250.375000
1582.527344	19196.513672
1581.486328	19445.224609
1580.445312	19333.726562
1579.403320	19423.898438
1578.362305	18911.648438
1577.320312	19366.591797
1576.278320	19243.187500
1575.236328	19491.621094
1574.193359	19094.835938
1573.150391	19395.958984
1572.108398	19171.943359
1571.065430	19429.796875
1570.021484	19630.041016
1568.978516	19159.302734
1567.934570	19222.968750
1566.891602	19475.835938
1565.847656	19213.722656
1564.803711	19387.484375
1563.758789	19324.181641
1562.714844	19387.755859
1561.669922	19156.955078
1560.625000	19359.312500
1559.580078	19324.761719
1558.535156	19106.050781
1557.489258	19370.482422
1556.443359	19292.910156
1555.398438	19315.765625
1554.351562	19352.955078
1553.305664	19361.453125
1552.259766	19276.763672
1551.212891	19215.994141
1550.166016	19246.005859
1549.119141	19536.296875
1548.072266	19499.386719
1547.025391	19467.263672
1545.977539	19451.857422
1544.929688	19496.113281
1543.881836	19308.921875
1542.833984	19603.660156
1541.786133	19340.193359
1540.737305	19296.205078
1539.688477	19183.089844
1538.639648	19356.064453
1537.590820	19414.576172
1536.541992	19608.892578
1535.493164	19150.339844
1534.443359	19254.115234
1533.393555	19453.115234
1532.343750	19297.246094
1531.293945	19403.318359
1530.243164	19459.363281
1529.192383	19470.167969
1528.142578	19354.855469
1527.091797	19318.091797
1526.040039	19419.304688
1524.989258	19135.205078
1523.937500	19324.390625
1522.885742	19285.279297
1521.833984	19372.158203
1520.782227	19399.593750
1519.730469	19455.531250
1518.677734	19307.138672
1517.625000	19412.951172
1516.572266	19471.228516
1515.519531	19237.433594
1514.466797	19101.052734
1513.413086	19498.771484
1512.360352	19379.003906
1511.306641	19325.714844
1510.252930	19096.892578
1509.198242	19577.339844
1508.144531	19429.183594
1507.089844	19356.951172
1506.035156	19455.427734
1504.980469	19399.804688
1503.925781	19292.068359
1502.870117	19257.818359
1501.815430	19725.785156
1500.759766	19281.722656
1499.704102	19361.158203
1498.647461	19383.738281
1497.591797	19153.021484
1496.535156	19350.771484
1495.479492	19356.777344
1494.421875	19138.015625
1493.365234	19222.115234
1492.308594	19358.216797
1491.250977	19281.451172
1490.193359	19263.816406
1489.135742	19553.482422
1488.078125	19126.937500
1487.020508	19073.892578
1485.961914	19550.076172
1484.904297	19530.042969
1483.845703	19082.548828
1482.786133	19251.505859
1481.727539	19087.523438
1480.668945	19178.523438
1479.609375	19097.210938
1478.549805	19256.603516
1477.490234	19054.986328
1476.429688	19016.195312
1475.370117	19090.615234
1474.309570	19202.734375
1473.249023	19402.039062
1472.188477	19125.146484
1471.127930	19277.259766
1470.066406	19214.900391
1469.005859	19263.287109
1467.944336	19151.490234
1466.882812	18799.529297
1465.820312	19405.982422
1464.758789	19009.371094
1463.696289	19175.431641
1462.633789	19284.953125
1461.571289	19062.683594
1460.508789	19254.517578
1459.446289	18978.236328
1458.382812	19334.626953
1457.319336	18990.246094
1456.255859	19153.744141
1455.192383	19044.546875
1454.128906	18937.738281
1453.064453	19002.478516
1452.000000	19252.769531
1450.935547	19141.281250
1449.871094	19166.029297
1448.806641	19143.810547
1447.741211	19058.220703
1446.675781	18906.945312
1445.610352	19107.703125
1444.544922	18982.279297
1443.479492	18990.603516
1442.413086	19003.615234
1441.346680	19108.068359
1440.280273	19099.953125
1439.213867	19180.910156
1438.147461	19261.837891
1437.080078	18953.773438
1436.013672	19191.673828
1434.946289	19113.277344
1433.878906	18917.812500
1432.810547	18972.955078
1431.743164	19126.400391
1430.674805	19155.738281
1429.606445	19159.320312
1428.538086	19289.250000
1427.469727	18944.240234
1426.400391	18905.755859
1425.331055	18829.867188
1424.262695	19209.937500
1423.192383	19225.191406
1422.123047	19242.775391
1421.053711	19068.730469
1419.983398	19296.613281
1418.913086	19120.283203
1417.842773	18960.365234
1416.772461	18842.535156
1415.701172	19257.074219
1414.630859	19122.892578
1413.559570	19082.115234
1412.488281	18985.347656
1411.416016	18874.615234
1410.344727	19064.835938
1409.272461	19178.023438
1408.200195	18897.089844
1407.127930	19185.121094
1406.055664	19069.785156
1404.983398	19015.085938
1403.910156	19223.712891
1402.836914	19015.242188
1401.763672	18820.822266
1400.690430	18917.580078
1399.617188	18914.181641
1398.542969	19073.744141
1397.468750	18863.156250
1396.394531	18836.494141
1395.320312	19082.074219
1394.245117	18573.818359
1393.170898	18858.898438
1392.095703	19060.156250
1391.020508	18605.654297
1389.945312	18946.365234
1388.869141	18664.042969
1387.793945	18972.083984
1386.717773	18994.230469
1385.641602	19058.181641
1384.565430	18882.878906
1383.488281	19269.611328
1382.412109	18876.085938
1381.334961	18977.150391
1380.257812	18864.652344
1379.180664	19121.158203
1378.102539	18795.220703
1377.025391	18701.371094
1375.947266	18825.564453
1374.869141	19146.818359
1373.791016	18953.259766
1372.711914	18826.992188
1371.633789	18677.593750
1370.554688	18901.316406
1369.475586	18842.310547
1368.396484	19049.707031
1367.316406	18812.367188
1366.237305	18790.457031
1365.157227	18951.445312
1364.077148	18753.599609
1362.997070	18750.220703
1361.916016	18818.574219
1360.835938	18926.230469
1359.754883	18765.535156
1358.673828	18741.341797
1357.592773	19015.427734
1356.511719	18843.244141
1355.429688	18916.123047
1354.347656	18822.587891
1353.265625	18874.650391
1352.183594	18852.767578
1351.101562	18817.035156
1350.018555	18695.871094
1348.935547	18701.736328
1347.852539	18926.902344
1346.769531	18948.878906
1345.686523	18846.236328
1344.602539	18676.720703
1343.519531	18832.521484
1342.435547	18852.191406
1341.350586	18881.074219
1340.266602	18813.115234
1339.181641	18818.943359
1338.097656	18813.246094
1337.012695	18809.853516
1335.926758	18707.394531
1334.841797	18890.599609
1333.756836	18760.527344
1332.670898	18819.312500
1331.584961	18677.787109
1330.499023	18812.523438
1329.412109	18636.527344
1328.326172	18973.707031
1327.239258	18742.529297
1326.152344	18658.644531
1325.065430	18894.447266
1323.977539	18727.787109
1322.890625	18772.683594
1321.802734	18732.519531
1320.714844	18641.814453
1319.626953	18778.605469
1318.538086	18694.812500
1317.450195	18863.697266
1316.361328	18745.472656
1315.272461	18870.664062
1314.183594	18470.123047
1313.093750	18820.242188
1312.004883	18807.664062
1310.915039	18806.562500
1309.825195	18686.177734
1308.735352	18556.660156
1307.644531	18736.755859
1306.554688	18866.345703
1305.463867	18496.177734
1304.373047	18479.085938
1303.282227	19085.265625
1302.190430	18804.605469
1301.099609	18540.080078
1300.007812	18832.164062
1298.916016	18744.039062
1297.824219	18514.005859
1296.731445	18377.902344
1295.639648	18678.955078
1294.546875	18460.496094
1293.454102	18617.298828
1292.361328	18549.890625
1291.267578	18589.986328
1290.174805	18634.642578
1289.081055	18475.822266
1287.987305	18397.056641
1286.892578	18912.474609
1285.798828	18509.212891
1284.704102	18526.425781
1283.609375	18376.900391
1282.514648	18700.126953
1281.419922	18591.720703
1280.325195	18643.144531
1279.229492	18562.171875
1278.133789	18378.542969
1277.038086	18455.072266
1275.942383	18549.820312
1274.845703	18434.710938
1273.750000	18595.554688
1272.653320	18551.152344
1271.556641	18442.941406
1270.458984	18314.257812
1269.362305	18673.242188
1268.264648	18401.035156
1267.166992	18358.982422
1266.069336	18713.207031
1264.971680	18659.726562
1263.873047	18303.482422
1262.775391	18566.478516
1261.676758	18367.404297
1260.578125	18223.007812
1259.478516	18294.781250
1258.379883	18270.998047
1257.280273	18370.023438
1256.180664	18584.968750
1255.081055	18361.095703
1253.981445	18110.031250
1252.880859	17943.134766
1251.780273	18442.001953
1250.679688	18077.474609
1249.579102	18267.251953
1248.478516	18420.626953
1247.376953	18430.912109
1246.276367	18457.082031
1245.174805	18562.675781
1244.072266	18282.476562
1242.970703	18220.175781
1241.868164	18380.193359
1240.766602	18320.164062
1239.664062	18368.996094
1238.560547	18172.964844
1237.458008	18391.804688
1236.354492	18361.275391
1235.251953	18210.666016
1234.148438	18449.765625
1233.043945	18149.701172
1231.940430	18191.703125
1230.835938	18312.935547
1229.731445	18483.927734
1228.626953	18410.410156
1227.522461	18527.007812
1226.417969	18317.753906
1225.312500	18361.937500
1224.207031	18311.109375
1223.101562	18212.810547
1221.996094	18245.681641
1220.889648	18059.269531
1219.784180	18550.957031
1218.677734	18441.384766
1217.571289	18261.814453
1216.463867	18445.986328
1215.357422	18370.367188
1214.250000	18409.937500
1213.142578	18521.734375
1212.035156	18197.845703
1210.927734	18311.896484
1209.819336	18389.802734
1208.710938	18312.017578
1207.603516	18288.390625
1206.494141	18145.250000
1205.385742	17943.533203
1204.276367	18377.623047
1203.167969	18070.001953
1202.058594	18161.369141
1200.948242	18568.142578
1199.838867	18289.935547
1198.728516	18360.939453
1197.619141	18549.017578
1196.508789	18295.730469
1195.397461	18299.160156
1194.287109	18329.595703
1193.175781	18373.521484
1192.064453	18280.187500
1190.953125	18425.330078
1189.841797	18251.052734
1188.730469	18169.033203
1187.618164	18604.136719
1186.505859	18272.574219
1185.393555	18415.333984
1184.281250	18420.974609
1183.167969	18511.982422
1182.055664	18223.351562
1180.942383	18157.156250
1179.829102	18522.095703
1178.714844	18267.291016
1177.601562	18248.257812
1176.487305	18332.460938
1175.373047	18423.363281
1174.258789	18538.910156
1173.143555	18416.662109
1172.029297	18128.513672
1170.914062	18371.847656
1169.798828	18323.671875
1168.683594	18170.169922
1167.568359	18301.318359
1166.452148	18439.138672
1165.335938	17835.443359
1164.219727	18535.453125
1163.103516	18388.767578
1161.986328	18230.939453
1160.870117	18218.667969
1159.752930	18222.066406
1158.635742	18247.837891
1157.518555	18166.212891
1156.400391	18062.250000
1155.282227	18439.150391
1154.164062	18326.228516
1153.045898	18267.001953
1151.927734	18379.906250
1150.808594	18278.228516
1149.690430	18114.025391
1148.571289	18271.572266
1147.452148	18078.390625
1146.332031	18461.433594
1145.212891	18141.021484
1144.092773	17997.080078
1142.972656	18199.138672
1141.852539	17981.595703
1140.731445	17978.320312
1139.611328	17946.044922
1138.490234	18239.404297
1137.369141	18013.091797
1136.248047	18041.021484
1135.125977	18211.601562
1134.003906	18206.054688
1132.882812	18102.462891
1131.760742	18067.972656
1130.637695	18075.816406
1129.515625	18036.888672
1128.392578	18084.812500
1127.269531	17847.759766
1126.146484	18127.187500
1125.023438	18250.730469
1123.899414	18000.425781
1122.775391	18141.742188
1121.651367	17867.080078
1120.527344	18139.572266
1119.403320	17827.210938
1118.278320	18115.171875
1117.153320	18174.099609
1116.028320	17928.566406
1114.903320	17896.412109
1113.778320	18026.429688
1112.652344	17938.742188
1111.526367	18010.968750
1110.400391	17841.169922
1109.274414	18031.031250
1108.147461	17938.966797
1107.021484	17922.378906
1105.894531	17872.519531
1104.767578	17838.203125
1103.639648	18063.371094
1102.512695	18175.375000
1101.384766	18034.607422
1100.256836	17984.767578
1099.128906	18023.589844
1098.000000	17927.238281
1096.872070	18012.576172
1095.743164	18135.535156
1094.614258	17910.775391
1093.485352	17898.646484
1092.355469	17769.197266
1091.226562	18040.398438
1090.096680	18034.888672
1088.966797	17823.623047
1087.835938	17886.728516
1086.706055	17879.037109
1085.575195	18092.472656
1084.444336	18201.919922
1083.313477	17900.183594
1082.182617	17941.111328
1081.050781	18061.572266
1079.918945	18056.062500
1078.787109	18125.652344
1077.655273	18241.593750
1076.523438	17867.312500
1075.390625	18005.332031
1074.257812	17986.589844
1073.125000	17985.507812
1071.992188	17726.275391
1070.859375	18023.050781
1069.725586	18026.371094
1068.591797	17954.712891
1067.458008	17999.935547
1066.324219	17992.234375
1065.189453	17931.638672
1064.054688	18031.927734
1062.919922	18244.539062
1061.785156	18038.546875
1060.650391	17854.650391
1059.514648	18062.773438
1058.378906	18154.134766
1057.243164	17987.925781
1056.107422	18314.748047
1054.971680	17913.130859
1053.834961	18070.449219
1052.698242	18095.736328
1051.561523	18413.500000
1050.424805	18058.328125
1049.287109	18072.609375
1048.150391	18144.031250
1047.012695	18123.128906
1045.874023	17939.644531
1044.736328	17903.408203
1043.597656	18212.009766
1042.459961	18026.410156
1041.321289	17944.070312
1040.181641	17773.953125
1039.042969	17854.097656
1037.903320	17927.628906
1036.764648	17790.513672
1035.624023	17870.609375
1034.484375	17696.271484
1033.344727	18109.644531
1032.204102	18069.056641
1031.063477	17767.646484
1029.922852	24503.287109
1028.782227	18157.724609
1027.640625	17814.835938
1026.499023	18083.169922
1025.357422	17955.029297
1024.215820	17855.400391
1023.074219	17729.537109
1021.931641	17962.666016
1020.789062	17957.183594
1019.646484	18015.152344
1018.503906	17793.099609
1017.360352	18071.970703
1016.216797	17751.585938
1015.074219	17763.634766
1013.929688	17723.216797
1012.786133	17862.021484
1011.641602	17919.927734
1010.498047	17866.392578
1009.353516	17972.330078
1008.208008	17820.527344
1007.063477	17889.312500
1005.917969	17744.128906
1004.772461	17900.208984
1003.626953	17803.085938
1002.481445	17817.273438
1001.335938	18016.880859
1000.189453	17978.677734
999.042969	18256.685547
997.896484	17703.902344
996.749023	18206.384766
995.602539	17799.837891
994.455078	18175.730469
993.307617	17873.912109
992.160156	17829.242188
991.011719	17815.080078
989.864258	17927.214844
988.715820	17876.025391
987.567383	17853.152344
986.417969	17810.699219
985.269531	17787.845703
984.120117	17773.699219
982.970703	17833.511719
981.821289	17695.404297
980.670898	17870.445312
979.521484	17886.726562
978.371094	17894.306641
977.220703	17908.402344
976.070312	17931.183594
974.918945	17875.751953
973.768555	17989.748047
972.617188	17908.267578
971.464844	17759.513672
970.313477	17919.050781
969.162109	17920.095703
968.009766	18157.660156
966.857422	17752.964844
965.705078	17866.830078
964.551758	17731.253906
963.398438	18042.396484
962.246094	17941.523438
961.092773	17871.031250
959.938477	18093.121094
958.785156	18018.291016
957.630859	18017.142578
956.476562	17743.089844
955.322266	17845.935547
954.166992	17885.955078
953.012695	17960.591797
951.857422	17952.958984
950.702148	18018.900391
949.546875	17805.722656
948.390625	17700.779297
947.235352	18158.179688
946.079102	17789.406250
944.921875	17907.197266
943.765625	18150.314453
942.609375	18034.595703
941.452148	17838.968750
940.294922	17796.798828
939.137695	17897.199219
937.979492	17999.718750
936.821289	17776.171875
935.664062	18018.994141
934.504883	18009.201172
933.346680	18074.937500
932.188477	17845.066406
931.029297	17639.005859
929.870117	18047.695312
928.710938	17684.259766
927.550781	17984.990234
926.391602	17921.322266
925.231445	17799.484375
924.071289	18000.906250
922.910156	17820.931641
921.750000	17856.417969
920.588867	17710.990234
919.427734	17696.960938
918.266602	17784.115234
917.105469	17890.607422
915.943359	17928.197266
914.781250	17653.791016
913.619141	17816.177734
912.457031	17765.574219
911.294922	17930.029297
910.131836	18001.972656
908.968750	17762.195312
907.805664	17746.023438
906.642578	17725.560547
905.478516	17625.611328
904.314453	17811.384766
903.150391	17623.404297
901.986328	17907.880859
900.821289	17853.052734
899.657227	17924.882812
898.492188	17704.824219
897.327148	17645.771484
896.161133	17490.201172
894.996094	17898.785156
893.830078	17648.869141
892.664062	17714.220703
891.498047	17813.845703
890.331055	17677.673828
889.165039	17599.410156
887.998047	17489.037109
886.831055	17959.207031
885.663086	17707.455078
884.496094	17946.150391
883.328125	17857.201172
882.160156	17701.927734
880.992188	17692.236328
879.824219	17678.269531
878.655273	17583.013672
877.486328	17720.933594
876.317383	17687.720703
875.148438	17622.447266
873.978516	17730.353516
872.808594	17699.291016
871.638672	17768.675781
870.468750	17722.660156
869.298828	17401.099609
868.127930	17818.626953
866.957031	17834.550781
865.786133	17491.794922
864.615234	17838.630859
863.443359	17613.376953
862.272461	17686.937500
861.100586	17641.000000
859.927734	17671.865234
858.755859	17770.960938
857.583008	17599.230469
856.411133	17711.093750
855.237305	17816.519531
854.064453	17485.046875
852.891602	18035.775391
851.717773	17666.039062
850.543945	17852.326172
849.370117	17693.574219
848.195312	17728.623047
847.021484	17674.253906
845.846680	17879.554688
844.671875	17729.421875
843.496094	17832.513672
842.321289	17790.925781
841.145508	17681.298828
839.969727	17805.603516
838.793945	17963.875000
837.618164	17794.759766
836.441406	17808.466797
835.264648	17679.810547
834.087891	17878.347656
832.911133	17904.771484
831.733398	17878.097656
830.555664	17855.677734
829.377930	17784.443359
828.200195	17840.574219
827.022461	17881.832031
825.843750	17753.345703
824.665039	17853.994141
823.486328	17848.566406
822.307617	17853.740234
821.127930	17967.031250
819.949219	18001.855469
818.769531	17812.029297
817.588867	18031.203125
816.409180	17820.255859
815.228516	17706.814453
814.047852	17921.650391
812.867188	17715.070312
811.686523	18001.796875
810.504883	18068.302734
809.324219	17946.453125
808.142578	17928.314453
806.959961	17715.576172
805.778320	17813.806641
804.595703	17977.548828
803.413086	17805.085938
802.230469	17884.218750
801.047852	17853.427734
799.864258	17962.101562
798.680664	17939.755859
797.497070	17778.015625
796.313477	18249.865234
795.129883	17777.753906
793.945312	17953.888672
792.760742	17813.367188
791.576172	17767.857422
790.390625	17781.439453
789.206055	17527.117188
788.020508	17857.089844
786.834961	17659.781250
785.649414	17957.980469
784.462891	18022.097656
783.276367	18029.289062
782.089844	17665.632812
780.903320	17803.500000
779.716797	17787.556641
778.529297	17729.500000
777.341797	17905.173828
776.154297	17935.531250
774.966797	17772.240234
773.778320	17787.878906
772.590820	17660.441406
771.402344	18096.800781
770.212891	18049.273438
769.024414	17820.923828
767.834961	17897.501953
766.645508	17728.119141
765.456055	17899.257812
764.266602	17824.490234
763.076172	17894.705078
761.886719	17952.291016
760.696289	17753.650391
759.504883	17933.019531
758.314453	17921.289062
757.123047	17920.054688
755.931641	17891.541016
754.740234	17923.882812
753.548828	17952.013672
752.356445	17927.703125
751.164062	17909.689453
749.971680	17921.035156
748.779297	18003.642578
747.585938	17811.677734
746.392578	17670.070312
745.199219	17983.121094
744.005859	17841.535156
742.812500	17873.816406
741.618164	17638.080078
740.423828	17544.781250
739.229492	17857.560547
738.035156	17741.234375
736.839844	17572.646484
735.644531	17715.804688
734.449219	17940.474609
733.253906	18139.968750
732.058594	17927.523438
730.862305	17882.380859
729.666016	17872.781250
728.469727	17767.068359
727.272461	17767.937500
726.076172	17622.595703
724.878906	17899.150391
723.681641	17808.123047
722.484375	17850.732422
721.286133	17763.919922
720.087891	18031.892578
718.889648	18007.669922
717.691406	17843.691406
716.493164	17767.371094
715.293945	17766.144531
714.094727	17827.464844
712.895508	17863.746094
711.695312	17781.222656
710.496094	17915.431641
709.295898	17662.097656
708.095703	18017.064453
706.895508	17807.537109
705.694336	17891.666016
704.493164	17954.945312
703.291992	18053.583984
702.090820	18162.589844
700.889648	17720.201172
699.687500	18089.250000
698.485352	17919.492188
697.283203	18024.279297
696.081055	17968.941406
694.877930	17899.074219
693.674805	17924.830078
692.471680	17848.761719
691.268555	18015.783203
690.065430	17979.189453
688.861328	17751.550781
687.657227	18088.751953
686.453125	17935.910156
685.248047	18067.472656
684.043945	17833.759766
682.838867	17822.132812
681.633789	18179.746094
680.427734	18097.541016
679.222656	17969.746094
678.016602	18078.343750
676.810547	17832.449219
675.604492	17951.392578
674.397461	17941.824219
673.190430	18004.767578
671.983398	17966.193359
670.776367	18033.246094
669.569336	18029.878906
668.361328	18103.105469
667.153320	17965.191406
665.945312	17694.890625
664.737305	17865.375000
663.528320	18087.511719
662.319336	18204.085938
661.110352	18122.107422
659.901367	17932.654297
658.692383	17898.298828
657.482422	18204.947266
656.272461	17943.263672
655.062500	17997.753906
653.851562	18039.830078
652.641602	17966.244141
651.430664	17896.814453
650.219727	17969.847656
649.007812	18080.003906
647.796875	17862.015625
646.584961	18001.031250
645.373047	18010.041016
644.161133	17744.750000
642.948242	17877.523438
641.735352	17917.472656
640.522461	17866.712891
639.309570	18153.949219
638.096680	17855.908203
636.882812	17873.167969
635.668945	17892.478516
634.455078	17794.402344
633.241211	18034.025391
632.026367	17828.914062
630.811523	17798.820312
629.596680	17949.820312
628.381836	17921.773438
627.166016	17875.220703
625.950195	17867.761719
624.734375	17751.324219
623.518555	17949.470703
622.302734	17942.000000
621.085938	17659.150391
619.869141	17812.000000
618.652344	17761.414062
617.435547	18039.472656
616.217773	17861.544922
615.000000	17815.083984
613.782227	17867.169922
612.564453	18007.488281
611.345703	17893.306641
610.126953	17822.251953
608.908203	17767.632812
607.689453	17928.369141
606.469727	17687.156250
605.250977	18227.109375
604.031250	17942.886719
602.810547	17890.339844
601.590820	17934.111328
600.370117	17947.136719
599.149414	17874.134766
597.928711	18036.652344
596.708008	17986.181641
595.486328	17876.365234
594.264648	18081.765625
593.042969	17890.123047
591.821289	17868.355469
590.598633	17834.322266
589.376953	17888.238281
588.154297	18021.876953
586.930664	17576.925781
585.708008	17886.347656
584.484375	17823.730469
583.260742	18079.865234
582.037109	17974.333984
580.813477	17803.486328
579.588867	17985.966797
578.364258	17935.632812
577.139648	17842.453125
575.914062	18008.494141
574.689453	17852.078125
573.463867	17954.810547
572.238281	17949.400391
571.012695	17827.750000
569.786133	17844.791016
568.559570	17969.869141
567.333008	17982.800781
566.106445	17991.650391
564.878906	17957.708984
563.652344	18086.742188
562.424805	17843.021484
561.197266	17870.212891
559.968750	18025.654297
558.740234	17955.097656
557.512695	18006.671875
556.283203	17842.544922
555.054688	18081.279297
553.825195	17882.619141
552.595703	17850.789062
551.366211	17847.433594
550.136719	18096.148438
548.906250	18001.287109
547.676758	17798.761719
546.446289	17643.039062
545.214844	17745.349609
543.984375	17837.464844
542.752930	17984.371094
541.521484	17654.134766
540.290039	17841.613281
539.057617	18067.578125
537.826172	17776.060547
536.593750	17569.855469
535.361328	17712.583984
534.127930	17794.421875
532.894531	17821.484375
531.662109	17795.833984
530.427734	17715.470703
529.194336	17750.636719
527.959961	17755.400391
526.726562	17474.556641
525.492188	17768.970703
524.256836	17500.375000
523.022461	17673.207031
521.787109	17453.306641
520.551758	17585.607422
519.316406	17515.527344
518.080078	17595.167969
516.843750	17705.115234
515.607422	17556.187500
514.371094	17704.513672
513.134766	17436.378906
511.897461	17774.642578
510.660156	17478.306641
509.422852	17458.851562
508.184570	17439.404297
506.947266	17603.734375
505.708984	17475.234375
504.470703	17657.662109
503.231445	17559.474609
501.993164	17554.146484
500.753906	17472.154297
499.514648	17565.685547
498.274414	17636.996094
497.035156	17430.013672
495.794922	17424.710938
494.554688	17506.083984
493.314453	17559.212891
492.073242	17398.738281
490.832031	17564.677734
489.590820	17349.880859
488.349609	17628.537109
487.108398	17387.630859
485.866211	17672.212891
484.624023	17620.576172
483.381836	17685.669922
482.138672	17279.958984
480.896484	17586.468750
479.653320	17657.560547
478.410156	17599.939453
477.166016	17556.412109
475.921875	17655.607422
474.678711	17413.134766
473.433594	17707.210938
472.189453	17513.029297
470.944336	17646.298828
469.700195	17644.976562
468.455078	17768.130859
467.208984	17694.519531
465.963867	17528.617188
464.717773	17471.128906
463.471680	17544.066406
462.224609	17468.542969
460.978516	17358.957031
459.731445	17457.935547
458.484375	17629.044922
457.237305	17595.650391
455.989258	17556.255859
454.742188	17562.957031
453.494141	17533.597656
452.245117	17524.277344
450.997070	17414.837891
449.748047	17415.550781
448.499023	17534.361328
447.250000	17673.136719
446.000977	17471.708984
444.750977	17324.369141
443.500977	17695.119141
442.250977	17441.804688
441.000000	17534.476562
439.750000	17389.234375
438.499023	17313.996094
437.248047	17470.580078
435.996094	17331.421875
434.745117	17178.333984
433.493164	17308.890625
432.241211	17235.732422
430.989258	17398.167969
429.736328	17279.111328
428.483398	17136.150391
427.230469	17344.400391
425.977539	17363.062500
424.723633	17190.248047
423.469727	17119.197266
422.215820	17337.257812
420.961914	17457.564453
419.708008	17350.625000
418.453125	17490.806641
417.198242	17258.394531
415.942383	17259.109375
414.687500	17212.031250
413.431641	17264.521484
412.175781	17376.712891
410.919922	17355.509766
409.664062	17288.544922
408.407227	17239.511719
407.150391	17343.662109
405.893555	17590.966797
404.635742	17378.849609
403.378906	17180.728516
402.121094	17328.537109
400.862305	17677.005859
399.604492	17407.410156
398.345703	17370.339844
397.086914	17446.494141
395.828125	17298.226562
394.569336	17416.058594
393.309570	17257.923828
392.049805	17687.308594
390.790039	17138.277344
389.530273	17581.408203
388.269531	17151.615234
387.008789	17521.197266
385.748047	17351.322266
384.487305	17459.046875
383.225586	17485.466797
381.963867	17091.763672
380.702148	17389.677734
379.440430	17493.347656
378.177734	17230.580078
376.915039	17342.160156
375.652344	17505.171875
374.389648	17531.541016
373.126953	17451.033203
371.863281	17602.056641
370.599609	17493.869141
369.334961	17666.582031
368.071289	17732.441406
366.806641	17916.906250
365.541992	18182.345703
364.277344	18295.501953
363.011719	18596.335938
361.746094	18859.517578
360.480469	19596.664062
359.214844	19926.701172
357.949219	20732.470703
356.682617	21451.070312
355.416016	22240.453125
354.149414	22782.859375
352.881836	23338.871094
351.614258	24028.808594
350.346680	24892.044922
349.079102	25693.820312
347.811523	26956.628906
346.542969	28280.060547
345.274414	29082.705078
344.005859	28395.419922
342.736328	26908.566406
341.466797	25308.035156
340.197266	23398.935547
338.927734	21783.925781
337.658203	20771.898438
336.387695	20090.906250
335.117188	19459.365234
333.846680	18865.443359
332.575195	18633.681641
331.304688	18498.373047
330.033203	18524.349609
328.761719	18188.587891
327.489258	18118.298828
326.216797	17932.093750
324.944336	17785.253906
323.671875	17844.730469
322.399414	17711.708984
321.125977	17712.267578
319.852539	17958.236328
318.579102	17905.746094
317.305664	17906.263672
316.031250	17818.482422
314.756836	17667.957031
313.482422	17882.312500
312.207031	17659.269531
310.932617	17808.841797
309.657227	17942.671875
308.381836	17992.175781
307.105469	17771.238281
305.830078	17738.466797
304.553711	17905.505859
303.277344	17890.345703
302.000000	18016.169922
300.722656	18065.597656
299.446289	18347.925781
298.167969	18604.705078
296.890625	18593.333984
295.612305	19366.404297
294.333984	19652.177734
293.055664	20203.783203
291.777344	20432.587891
290.498047	20520.566406
289.218750	20655.412109
287.939453	20885.953125
286.660156	20948.394531
285.379883	20700.248047
284.099609	20881.822266
282.819336	20579.113281
281.539062	20497.105469
280.257812	19948.664062
278.976562	19925.345703
277.695312	19738.154297
276.413086	19513.970703
275.131836	19812.537109
273.849609	20218.230469
272.567383	20479.505859
271.284180	20894.662109
270.001953	21826.080078
268.718750	22675.308594
267.435547	23444.343750
266.151367	25424.517578
264.868164	27349.412109
263.583984	30554.628906
262.298828	34875.925781
261.014648	41258.500000
259.729492	49331.468750
258.444336	58483.000000
257.159180	67428.750000
255.874023	71855.562500
254.587891	71734.906250
253.301758	64452.863281
252.015625	55723.707031
250.729492	47122.242188
249.442383	40072.484375
248.155273	34960.089844
246.868164	30892.541016
245.581055	28135.250000
244.292969	25963.351562
243.004883	23986.376953
241.716797	22761.164062
240.427734	21621.787109
239.139648	20595.355469
237.850586	20178.312500
236.560547	19394.935547
235.271484	19015.115234
233.981445	18633.498047
232.691406	18430.324219
231.401367	17892.017578
230.111328	17791.734375
228.820312	17315.732422
227.529297	17039.373047
226.238281	17043.861328
224.946289	16856.703125
223.655273	17004.441406
222.363281	16428.419922
221.070312	16496.859375
219.778320	16342.830078
218.485352	16188.857422
217.192383	16187.694336
215.899414	15912.018555
214.605469	15986.287109
213.312500	15689.497070
212.018555	15586.027344
210.723633	15826.439453
209.429688	15630.277344
208.134766	15793.348633
206.839844	15458.263672
205.544922	15569.187500
204.249023	15502.522461
202.954102	15466.752930
201.658203	15106.905273
200.361328	15256.383789
199.065430	15373.022461
197.768555	15310.310547
196.471680	15022.087891
195.174805	15050.046875
193.876953	15156.998047
192.579102	15055.841797
191.281250	15143.487305
189.983398	14996.151367
188.684570	15099.176758
187.385742	14988.480469
186.086914	15022.177734
184.788086	15053.936523
183.488281	15166.489258
182.188477	15150.117188
180.888672	14964.508789
179.588867	14934.719727
178.288086	14997.221680
176.988281	15025.100586
175.686523	15037.593750
174.385742	14982.833008
173.083984	14962.671875
171.782227	14919.468750
170.480469	15056.787109
169.178711	15002.062500
167.875977	15035.656250
166.573242	15105.700195
165.270508	14960.812500
163.967773	14842.836914
162.664062	14841.907227
161.360352	14712.492188
160.056641	14686.662109
158.751953	14839.116211
157.448242	14796.020508
156.143555	14693.538086
154.838867	14652.401367
153.533203	14777.925781
152.227539	14591.238281
150.921875	14613.329102
149.616211	14830.676758
148.310547	14605.804688
147.003906	14790.537109
145.697266	14529.405273
144.390625	14696.863281
143.083008	14606.064453
141.775391	14763.881836
140.467773	14455.157227
139.160156	14595.738281
137.851562	14346.406250
136.542969	14515.613281
135.234375	14392.473633
133.925781	14212.081055
132.616211	14322.016602
131.307617	14147.433594
129.998047	13950.009766
128.687500	13661.053711
127.377930	13608.816406
126.067383	13396.346680
124.756836	13162.975586
123.445312	12866.761719
122.133789	12502.021484
120.823242	12270.861328
119.510742	11959.740234
