#Wave		#Intensity
1999.091797	66789.625000
1998.124023	66420.203125
1997.156250	67059.515625
1996.187500	66960.023438
1995.219727	67015.484375
1994.250977	66833.421875
1993.282227	66519.789062
1992.313477	66823.031250
1991.344727	66661.726562
1990.375977	66330.218750
1989.406250	67076.968750
1988.437500	67150.375000
1987.467773	66599.781250
1986.498047	66706.750000
1985.528320	66857.500000
1984.557617	66637.101562
1983.587891	66782.656250
1982.617188	66500.515625
1981.646484	66785.117188
1980.675781	67000.093750
1979.705078	66815.890625
1978.733398	67105.437500
1977.762695	66478.570312
1976.791016	66371.750000
1975.819336	66643.203125
1974.847656	66801.359375
1973.875000	66637.953125
1972.903320	66847.484375
1971.930664	67537.757812
1970.958984	66898.710938
1969.986328	66969.289062
1969.012695	66849.664062
1968.040039	67611.390625
1967.066406	66983.039062
1966.093750	66794.117188
1965.120117	66928.835938
1964.146484	66773.367188
1963.172852	66833.585938
1962.198242	66852.718750
1961.224609	66671.679688
1960.250000	66287.992188
1959.275391	66881.843750
1958.300781	67290.812500
1957.326172	67150.835938
1956.350586	67167.312500
1955.375977	66755.664062
1954.400391	67082.335938
1953.424805	66775.914062
1952.449219	66966.664062
1951.473633	66983.148438
1950.497070	66999.625000
1949.520508	66729.265625
1948.544922	67029.984375
1947.568359	66803.234375
1946.590820	66940.015625
1945.614258	66810.593750
1944.637695	67149.460938
1943.660156	67176.093750
1942.682617	66481.437500
1941.705078	66809.937500
1940.727539	67217.585938
1939.749023	66357.109375
1938.771484	66976.835938
1937.792969	66776.015625
1936.814453	66769.453125
1935.835938	67105.210938
1934.857422	66541.773438
1933.877930	66874.898438
1932.899414	67169.601562
1931.919922	66726.421875
1930.940430	66844.929688
1929.960938	67055.257812
1928.980469	66625.085938
1928.000977	66279.242188
1927.020508	66941.007812
1926.040039	66352.960938
1925.059570	66458.648438
1924.079102	66928.835938
1923.098633	67187.304688
1922.117188	66693.898438
1921.135742	66944.671875
1920.155273	66846.343750
1919.172852	66888.132812
1918.191406	66512.265625
1917.209961	66900.375000
1916.227539	66593.367188
1915.245117	66423.906250
1914.262695	66536.976562
1913.280273	66408.289062
1912.297852	66615.445312
1911.314453	66840.328125
1910.332031	66526.007812
1909.348633	66860.148438
1908.365234	66810.312500
1907.381836	66569.867188
1906.397461	67129.992188
1905.414062	66610.078125
1904.429688	66753.375000
1903.445312	66939.796875
1902.460938	66534.453125
1901.476562	66284.132812
1900.491211	66343.609375
1899.506836	66324.375000
1898.521484	66779.695312
1897.536133	66509.195312
1896.550781	66406.218750
1895.565430	66465.601562
1894.579102	66420.992188
1893.592773	66749.109375
1892.607422	66544.750000
1891.621094	66560.976562
1890.633789	66060.218750
1889.647461	66188.000000
1888.660156	66563.984375
1887.673828	66428.210938
1886.686523	65981.000000
1885.699219	66470.757812
1884.710938	66357.851562
1883.723633	66288.000000
1882.735352	66785.031250
1881.748047	66823.929688
1880.759766	66845.101562
1879.770508	66701.859375
1878.782227	66242.562500
1877.793945	66061.546875
1876.804688	66360.898438
1875.815430	66291.125000
1874.826172	66016.687500
1873.836914	66280.515625
1872.846680	66208.257812
1871.857422	66257.265625
1870.867188	66419.882812
1869.876953	66549.625000
1868.886719	66202.210938
1867.896484	66483.375000
1866.905273	66582.742188
1865.915039	66227.921875
1864.923828	66748.578125
1863.932617	66499.781250
1862.941406	66061.937500
1861.949219	66299.953125
1860.958008	65953.046875
1859.965820	66122.937500
1858.973633	66680.843750
1857.981445	66281.132812
1856.989258	66632.250000
1855.997070	66630.625000
1855.003906	66299.117188
1854.010742	66408.335938
1853.017578	66248.148438
1852.024414	66689.554688
1851.031250	66272.703125
1850.037109	66651.046875
1849.043945	66304.773438
1848.049805	66446.546875
1847.055664	66618.453125
1846.060547	66986.398438
1845.066406	66622.703125
1844.072266	66756.773438
1843.077148	66631.968750
1842.082031	65869.039062
1841.086914	66254.367188
1840.090820	66888.203125
1839.095703	66364.179688
1838.099609	66201.875000
1837.104492	66381.023438
1836.108398	66577.671875
1835.111328	66731.593750
1834.115234	66772.554688
1833.119141	66735.734375
1832.122070	66658.796875
1831.125000	66413.875000
1830.127930	66474.906250
1829.130859	66576.023438
1828.132812	66669.585938
1827.135742	66234.375000
1826.137695	66375.562500
1825.139648	66188.546875
1824.141602	66317.164062
1823.142578	66340.554688
1822.144531	66353.929688
1821.145508	66747.781250
1820.146484	66673.468750
1819.147461	66366.468750
1818.148438	66497.406250
1817.148438	66032.945312
1816.149414	66659.085938
1815.149414	66357.296875
1814.149414	66435.632812
1813.149414	66413.945312
1812.149414	66537.218750
1811.148438	66702.921875
1810.148438	66808.609375
1809.147461	66854.304688
1808.146484	66500.390625
1807.144531	66903.195312
1806.143555	65980.164062
1805.142578	66490.250000
1804.140625	66710.648438
1803.138672	66486.804688
1802.136719	66539.968750
1801.133789	65944.562500
1800.131836	65962.882812
1799.128906	66639.484375
1798.125977	66470.687500
1797.123047	66506.343750
1796.120117	66651.640625
1795.117188	66218.796875
1794.113281	66234.539062
1793.110352	66080.898438
1792.106445	65927.304688
1791.101562	65992.882812
1790.097656	66284.984375
1789.093750	66567.031250
1788.088867	65853.492188
1787.083984	66424.140625
1786.079102	65989.507812
1785.074219	65945.546875
1784.069336	66157.750000
1783.063477	65870.093750
1782.057617	65786.390625
1781.051758	65722.601562
1780.045898	65566.875000
1779.040039	65749.132812
1778.034180	65956.164062
1777.027344	65748.312500
1776.020508	65356.757812
1775.013672	66137.320312
1774.006836	66110.765625
1773.000000	66029.609375
1771.992188	65618.414062
1770.984375	65934.375000
1769.976562	65719.320312
1768.968750	65916.085938
1767.960938	65837.500000
1766.953125	65892.835938
1765.944336	65729.992188
1764.935547	65968.742188
1763.926758	66152.890625
1762.917969	65085.695312
1761.908203	66139.460938
1760.899414	65862.765625
1759.889648	66059.171875
1758.879883	66042.562500
1757.870117	65550.656250
1756.860352	65368.304688
1755.849609	65099.402344
1754.839844	65627.304688
1753.829102	65702.304688
1752.818359	65591.773438
1751.807617	65523.324219
1750.795898	65598.296875
1749.785156	65838.867188
1748.773438	65308.203125
1747.761719	65909.539062
1746.750000	65991.789062
1745.738281	65826.976562
1744.725586	65439.933594
1743.712891	65398.746094
1742.701172	64856.359375
1741.688477	65264.566406
1740.674805	65302.406250
1739.662109	65604.273438
1738.648438	65355.828125
1737.635742	65228.343750
1736.622070	65502.929688
1735.608398	65054.878906
1734.593750	65176.527344
1733.580078	65204.457031
1732.565430	65158.433594
1731.550781	65445.093750
1730.536133	65105.847656
1729.521484	65131.292969
1728.506836	65058.210938
1727.491211	65416.089844
1726.475586	65064.765625
1725.459961	64974.496094
1724.444336	65093.457031
1723.428711	65158.234375
1722.412109	65405.050781
1721.396484	65496.804688
1720.379883	65170.417969
1719.363281	65212.996094
1718.345703	65427.656250
1717.329102	65135.863281
1716.311523	65085.023438
1715.293945	64980.136719
1714.276367	65086.574219
1713.258789	65018.570312
1712.241211	65269.859375
1711.222656	65093.796875
1710.205078	65627.312500
1709.186523	65100.226562
1708.167969	65019.996094
1707.148438	65136.089844
1706.129883	65347.824219
1705.110352	65265.128906
1704.090820	65018.144531
1703.071289	65565.710938
1702.051758	65034.363281
1701.032227	65145.417969
1700.011719	65403.472656
1698.991211	65318.390625
1697.971680	64980.992188
1696.950195	65469.183594
1695.929688	65053.507812
1694.909180	65007.710938
1693.887695	65057.410156
1692.866211	65337.171875
1691.844727	65208.132812
1690.823242	64682.750000
1689.800781	65407.671875
1688.779297	64938.691406
1687.756836	64599.488281
1686.734375	64683.410156
1685.711914	64838.191406
1684.688477	65063.804688
1683.666016	64715.031250
1682.642578	64813.523438
1681.619141	64946.179688
1680.595703	65071.457031
1679.572266	65316.351562
1678.547852	64958.062500
1677.524414	65144.292969
1676.500000	65201.093750
1675.475586	64703.910156
1674.451172	65243.871094
1673.425781	64834.671875
1672.401367	64845.132812
1671.375977	64821.449219
1670.350586	64692.925781
1669.325195	64874.042969
1668.299805	64301.957031
1667.273438	64821.804688
1666.247070	64561.796875
1665.220703	64871.906250
1664.194336	64711.835938
1663.167969	64761.242188
1662.141602	64735.152344
1661.114258	64845.390625
1660.086914	64661.085938
1659.059570	64605.816406
1658.032227	64389.984375
1657.004883	64500.195312
1655.976562	64564.152344
1654.948242	64679.152344
1653.919922	64504.781250
1652.891602	63771.371094
1651.863281	64525.644531
1650.833984	64047.636719
1649.805664	64009.550781
1648.776367	64525.316406
1647.747070	64985.039062
1646.717773	64211.027344
1645.687500	64214.199219
1644.658203	64309.609375
1643.627930	63776.394531
1642.597656	64138.765625
1641.567383	64207.445312
1640.536133	64052.929688
1639.505859	63864.515625
1638.474609	64202.355469
1637.443359	63832.148438
1636.412109	63934.742188
1635.380859	63688.304688
1634.348633	63531.609375
1633.316406	64201.101562
1632.285156	64167.902344
1631.252930	63848.937500
1630.219727	63869.074219
1629.187500	63390.484375
1628.154297	63391.328125
1627.121094	63622.078125
1626.087891	63755.957031
1625.054688	63626.089844
1624.021484	63295.503906
1622.987305	63289.093750
1621.954102	63367.316406
1620.919922	63597.808594
1619.885742	63161.097656
1618.850586	63555.875000
1617.816406	63406.855469
1616.781250	63340.023438
1615.746094	62937.476562
1614.710938	63153.292969
1613.675781	63431.808594
1612.639648	62841.152344
1611.604492	63211.339844
1610.568359	63156.664062
1609.532227	62952.414062
1608.496094	63471.941406
1607.458984	63115.750000
1606.422852	63012.886719
1605.385742	62917.296875
1604.348633	62908.515625
1603.311523	63169.683594
1602.274414	62792.160156
1601.236328	63096.621094
1600.198242	62781.871094
1599.160156	62715.308594
1598.122070	63050.914062
1597.083984	62774.855469
1596.045898	62831.089844
1595.006836	62641.808594
1593.967773	63073.433594
1592.928711	62852.894531
1591.889648	62464.042969
1590.849609	63357.242188
1589.810547	62376.886719
1588.770508	62531.675781
1587.730469	62662.371094
1586.690430	62788.210938
1585.650391	62940.433594
1584.609375	62487.167969
1583.568359	62629.777344
1582.527344	62481.730469
1581.486328	62761.156250
1580.445312	62569.921875
1579.403320	62364.347656
1578.362305	62209.246094
1577.320312	62862.835938
1576.278320	62832.449219
1575.236328	62706.121094
1574.193359	62678.164062
1573.150391	62731.742188
1572.108398	62691.796875
1571.065430	62786.097656
1570.021484	62585.585938
1568.978516	62929.058594
1567.934570	62350.070312
1566.891602	62382.074219
1565.847656	63158.859375
1564.803711	62580.128906
1563.758789	62772.464844
1562.714844	62457.296875
1561.669922	62764.453125
1560.625000	62868.113281
1559.580078	62844.945312
1558.535156	62680.667969
1557.489258	62734.062500
1556.443359	62849.597656
1555.398438	62651.929688
1554.351562	62722.023438
1553.305664	62751.464844
1552.259766	62264.808594
1551.212891	62311.039062
1550.166016	62813.437500
1549.119141	62541.941406
1548.072266	62580.925781
1547.025391	62741.640625
1545.977539	62386.761719
1544.929688	62922.093750
1543.881836	62531.515625
1542.833984	62964.054688
1541.786133	62065.589844
1540.737305	62405.054688
1539.688477	62405.839844
1538.639648	62673.601562
1537.590820	62214.351562
1536.541992	62439.156250
1535.493164	62475.664062
1534.443359	62721.773438
1533.393555	62541.484375
1532.343750	62525.558594
1531.293945	62214.417969
1530.243164	62239.015625
1529.192383	62568.234375
1528.142578	62837.843750
1527.091797	62024.875000
1526.040039	62142.250000
1524.989258	62421.296875
1523.937500	62343.570312
1522.885742	62320.550781
1521.833984	62090.738281
1520.782227	62169.957031
1519.730469	61983.019531
1518.677734	62630.011719
1517.625000	62203.156250
1516.572266	61961.683594
1515.519531	61796.277344
1514.466797	62203.058594
1513.413086	62215.679688
1512.360352	62453.742188
1511.306641	62013.121094
1510.252930	61862.074219
1509.198242	62183.078125
1508.144531	61583.847656
1507.089844	61916.636719
1506.035156	61656.660156
1504.980469	62062.785156
1503.925781	61530.347656
1502.870117	61955.304688
1501.815430	61212.238281
1500.759766	61670.250000
1499.704102	61453.203125
1498.647461	61716.859375
1497.591797	61615.871094
1496.535156	61919.632812
1495.479492	61295.671875
1494.421875	61443.226562
1493.365234	61481.914062
1492.308594	61392.867188
1491.250977	61386.613281
1490.193359	61427.644531
1489.135742	61381.199219
1488.078125	61653.824219
1487.020508	61482.109375
1485.961914	61175.792969
1484.904297	61266.414062
1483.845703	61340.472656
1482.786133	61046.140625
1481.727539	60940.781250
1480.668945	61420.843750
1479.609375	61140.808594
1478.549805	61103.910156
1477.490234	60864.132812
1476.429688	61065.523438
1475.370117	60799.894531
1474.309570	60772.500000
1473.249023	60804.054688
1472.188477	60710.671875
1471.127930	61152.273438
1470.066406	60827.945312
1469.005859	61040.851562
1467.944336	60448.144531
1466.882812	60449.089844
1465.820312	60911.523438
1464.758789	60507.476562
1463.696289	60322.464844
1462.633789	60339.898438
1461.571289	60091.449219
1460.508789	60017.167969
1459.446289	60742.589844
1458.382812	60541.226562
1457.319336	60784.300781
1456.255859	60726.394531
1455.192383	60464.027344
1454.128906	60413.242188
1453.064453	60562.179688
1452.000000	60203.664062
1450.935547	60256.285156
1449.871094	60564.839844
1448.806641	60307.464844
1447.741211	60071.304688
1446.675781	60285.839844
1445.610352	60678.628906
1444.544922	60726.402344
1443.479492	60267.488281
1442.413086	60113.617188
1441.346680	60546.011719
1440.280273	60101.433594
1439.213867	60346.148438
1438.147461	60288.453125
1437.080078	59809.007812
1436.013672	60166.085938
1434.946289	59899.980469
1433.878906	60294.382812
1432.810547	59468.730469
1431.743164	59795.171875
1430.674805	60311.082031
1429.606445	60194.949219
1428.538086	60064.816406
1427.469727	60096.144531
1426.400391	59657.332031
1425.331055	59840.718750
1424.262695	60042.746094
1423.192383	59805.210938
1422.123047	59677.609375
1421.053711	60227.742188
1419.983398	59642.164062
1418.913086	59745.921875
1417.842773	59604.398438
1416.772461	59866.910156
1415.701172	59134.718750
1414.630859	59686.671875
1413.559570	59603.601562
1412.488281	59595.230469
1411.416016	59351.214844
1410.344727	59382.542969
1409.272461	59465.164062
1408.200195	59410.175781
1407.127930	59555.703125
1406.055664	59503.046875
1404.983398	59476.039062
1403.910156	59432.730469
1402.836914	59382.445312
1401.763672	59290.246094
1400.690430	59934.007812
1399.617188	59119.914062
1398.542969	59316.480469
1397.468750	59457.117188
1396.394531	59071.746094
1395.320312	58968.054688
1394.245117	59290.125000
1393.170898	59118.972656
1392.095703	59352.523438
1391.020508	59393.003906
1389.945312	59170.773438
1388.869141	59325.156250
1387.793945	59019.355469
1386.717773	59359.582031
1385.641602	59416.273438
1384.565430	58896.933594
1383.488281	59111.589844
1382.412109	58817.699219
1381.334961	59111.214844
1380.257812	58912.582031
1379.180664	58895.019531
1378.102539	59074.671875
1377.025391	58716.085938
1375.947266	58842.359375
1374.869141	58514.085938
1373.791016	58737.714844
1372.711914	58268.171875
1371.633789	58582.148438
1370.554688	58789.421875
1369.475586	58688.484375
1368.396484	58608.425781
1367.316406	58461.234375
1366.237305	58554.906250
1365.157227	58636.964844
1364.077148	58448.175781
1362.997070	58352.023438
1361.916016	58670.082031
1360.835938	58511.453125
1359.754883	58436.148438
1358.673828	58404.812500
1357.592773	58838.230469
1356.511719	58550.218750
1355.429688	58583.585938
1354.347656	57981.429688
1353.265625	58310.628906
1352.183594	58339.394531
1351.101562	58712.289062
1350.018555	58350.699219
1348.935547	57929.207031
1347.852539	58001.871094
1346.769531	58051.425781
1345.686523	57911.738281
1344.602539	58074.335938
1343.519531	58377.589844
1342.435547	58212.539062
1341.350586	58178.984375
1340.266602	58050.914062
1339.181641	57703.898438
1338.097656	57728.062500
1337.012695	57602.441406
1335.926758	57923.808594
1334.841797	57777.457031
1333.756836	58103.281250
1332.670898	57862.539062
1331.584961	57757.710938
1330.499023	57634.503906
1329.412109	57444.597656
1328.326172	57622.914062
1327.239258	57495.187500
1326.152344	57383.609375
1325.065430	57352.558594
1323.977539	57321.515625
1322.890625	57846.808594
1321.802734	57266.347656
1320.714844	57773.074219
1319.626953	57172.156250
1318.538086	57391.558594
1317.450195	57771.656250
1316.361328	57605.070312
1315.272461	57305.378906
1314.183594	57641.660156
1313.093750	57436.164062
1312.004883	57666.742188
1310.915039	57110.281250
1309.825195	57207.781250
1308.735352	57165.339844
1307.644531	57560.890625
1306.554688	56991.082031
1305.463867	57320.042969
1304.373047	57169.886719
1303.282227	57134.351562
1302.190430	56979.695312
1301.099609	56944.207031
1300.007812	57364.472656
1298.916016	57271.675781
1297.824219	57027.812500
1296.731445	56930.523438
1295.639648	57204.015625
1294.546875	56898.507812
1293.454102	56998.035156
1292.361328	57134.117188
1291.267578	57066.617188
1290.174805	56793.359375
1289.081055	56682.503906
1287.987305	56775.109375
1286.892578	56513.472656
1285.798828	56603.785156
1284.704102	56707.769531
1283.609375	55971.207031
1282.514648	56703.246094
1281.419922	56489.789062
1280.325195	56246.734375
1279.229492	56348.394531
1278.133789	56244.640625
1277.038086	56435.238281
1275.942383	56212.886719
1274.845703	56141.140625
1273.750000	56032.929688
1272.653320	55963.515625
1271.556641	56293.027344
1270.458984	56287.398438
1269.362305	55696.164062
1268.264648	56276.136719
1267.166992	56334.285156
1266.069336	56228.437500
1264.971680	56104.414062
1263.873047	56055.554688
1262.775391	55936.152344
1261.676758	55530.046875
1260.578125	56043.316406
1259.478516	56297.058594
1258.379883	55431.656250
1257.280273	55624.011719
1256.180664	55627.578125
1255.081055	55658.421875
1253.981445	55339.234375
1252.880859	55758.703125
1251.780273	56005.339844
1250.679688	55318.253906
1249.579102	55501.285156
1248.478516	55756.914062
1247.376953	55406.253906
1246.276367	55568.730469
1245.174805	55245.464844
1244.072266	55523.632812
1242.970703	55304.847656
1241.868164	55553.414062
1240.766602	55520.667969
1239.664062	54925.589844
1238.560547	55228.492188
1237.458008	55633.281250
1236.354492	55233.398438
1235.251953	55057.976562
1234.148438	55392.339844
1233.043945	55355.117188
1231.940430	55573.804688
1230.835938	55085.980469
1229.731445	55166.542969
1228.626953	55124.851562
1227.522461	55123.902344
1226.417969	54885.386719
1225.312500	55092.597656
1224.207031	55455.792969
1223.101562	54851.000000
1221.996094	55080.707031
1220.889648	54948.644531
1219.784180	55406.515625
1218.677734	55120.781250
1217.571289	55235.039062
1216.463867	54795.828125
1215.357422	55041.089844
1214.250000	55128.195312
1213.142578	55289.773438
1212.035156	55184.933594
1210.927734	54933.433594
1209.819336	55034.027344
1208.710938	55195.492188
1207.603516	54675.703125
1206.494141	55159.664062
1205.385742	54942.207031
1204.276367	55247.843750
1203.167969	55077.777344
1202.058594	54558.472656
1200.948242	54827.953125
1199.838867	54714.367188
1198.728516	54808.035156
1197.619141	55237.203125
1196.508789	55080.820312
1195.397461	55095.578125
1194.287109	55036.050781
1193.175781	54785.269531
1192.064453	54881.058594
1190.953125	54774.359375
1189.841797	54604.722656
1188.730469	55013.046875
1187.618164	54870.402344
1186.505859	55067.230469
1185.393555	54877.425781
1184.281250	54741.617188
1183.167969	55068.656250
1182.055664	54757.656250
1180.942383	54621.933594
1179.829102	54524.433594
1178.714844	54725.546875
1177.601562	54601.121094
1176.487305	54716.863281
1175.373047	54590.238281
1174.258789	54717.152344
1173.143555	54159.925781
1172.029297	54277.898438
1170.914062	54458.605469
1169.798828	54926.179688
1168.683594	53905.363281
1167.568359	54480.425781
1166.452148	54387.617188
1165.335938	54350.839844
1164.219727	54271.519531
1163.103516	54519.156250
1161.986328	54580.878906
1160.870117	54324.714844
1159.752930	54321.539062
1158.635742	54318.367188
1157.518555	54078.042969
1156.400391	54320.957031
1155.282227	54165.703125
1154.164062	54381.675781
1153.045898	53973.839844
1151.927734	54390.929688
1150.808594	54061.453125
1149.690430	54192.371094
1148.571289	54352.285156
1147.452148	53880.039062
1146.332031	53792.066406
1145.212891	54018.937500
1144.092773	53415.296875
1142.972656	53704.640625
1141.852539	53915.777344
1140.731445	53758.703125
1139.611328	53550.371094
1138.490234	53788.179688
1137.369141	53419.363281
1136.248047	53534.480469
1135.125977	53475.683594
1134.003906	53405.761719
1132.882812	53592.113281
1131.760742	53390.750000
1130.637695	53721.816406
1129.515625	53431.414062
1128.392578	53470.660156
1127.269531	53082.449219
1126.146484	53355.453125
1125.023438	53316.792969
1123.899414	53151.316406
1122.775391	53190.566406
1121.651367	53267.609375
1120.527344	53082.210938
1119.403320	53108.105469
1118.278320	53138.429688
1117.153320	53270.980469
1116.028320	53147.933594
1114.903320	52840.515625
1113.778320	52924.171875
1112.652344	53083.308594
1111.526367	53013.667969
1110.400391	52781.976562
1109.274414	52774.566406
1108.147461	52946.917969
1107.021484	52812.996094
1105.894531	52896.531250
1104.767578	52813.679688
1103.639648	52888.308594
1102.512695	53302.164062
1101.384766	53053.003906
1100.256836	53069.914062
1099.128906	52758.835938
1098.000000	52899.867188
1096.872070	53058.570312
1095.743164	52944.781250
1094.614258	53090.125000
1093.485352	52715.101562
1092.355469	52537.234375
1091.226562	52934.878906
1090.096680	52482.632812
1088.966797	52798.277344
1087.835938	52671.394531
1086.706055	52989.093750
1085.575195	52599.074219
1084.444336	52644.734375
1083.313477	52756.687500
1082.182617	52428.800781
1081.050781	53033.496094
1079.918945	52754.277344
1078.787109	52729.171875
1077.655273	52790.203125
1076.523438	52740.808594
1075.390625	52497.156250
1074.257812	52944.453125
1073.125000	52305.828125
1071.992188	52424.238281
1070.859375	52321.996094
1069.725586	52449.175781
1068.591797	52395.480469
1067.458008	52866.539062
1066.324219	52768.695312
1065.189453	52609.171875
1064.054688	52110.351562
1062.919922	52506.203125
1061.785156	52476.773438
1060.650391	52929.667969
1059.514648	52605.101562
1058.378906	52555.847656
1057.243164	52621.070312
1056.107422	52582.828125
1054.971680	52082.523438
1053.834961	52398.585938
1052.698242	52459.378906
1051.561523	52223.261719
1050.424805	52292.859375
1049.287109	52553.679688
1048.150391	52034.136719
1047.012695	52288.312500
1045.874023	52320.484375
1044.736328	52587.691406
1043.597656	52683.484375
1042.459961	51751.542969
1041.321289	52220.691406
1040.181641	52013.566406
1039.042969	52120.359375
1037.903320	51900.156250
1036.764648	51708.550781
1035.624023	51609.144531
1034.484375	52242.269531
1033.344727	51848.972656
1032.204102	52334.933594
1031.063477	51680.921875
1029.922852	52059.347656
1028.782227	51569.953125
1027.640625	51987.687500
1026.499023	51855.503906
1025.357422	51826.289062
1024.215820	51610.972656
1023.074219	51249.066406
1021.931641	51852.507812
1020.789062	51886.765625
1019.646484	51479.054688
1018.503906	51303.363281
1017.360352	51359.566406
1016.216797	51577.562500
1015.074219	51716.773438
1013.929688	51261.363281
1012.786133	51171.097656
1011.641602	51664.281250
1010.498047	51189.464844
1009.353516	51590.718750
1008.208008	51358.496094
1007.063477	51355.625000
1005.917969	51632.183594
1004.772461	51594.335938
1003.626953	51353.542969
1002.481445	51335.390625
1001.335938	51031.468750
1000.189453	51087.535156
999.042969	51372.546875
997.896484	51201.777344
996.749023	51473.582031
995.602539	50864.773438
994.455078	51228.058594
993.307617	51085.750000
992.160156	51320.339844
991.011719	51269.535156
989.864258	51523.593750
988.715820	51043.878906
987.567383	51132.457031
986.417969	51044.714844
985.269531	51544.496094
984.120117	51215.230469
982.970703	51186.246094
981.821289	51333.417969
980.670898	51376.167969
979.521484	51062.386719
978.371094	51222.531250
977.220703	50982.773438
976.070312	51403.593750
974.918945	50757.667969
973.768555	50902.539062
972.617188	50869.296875
971.464844	50964.156250
970.313477	51102.394531
969.162109	51418.542969
968.009766	50762.460938
966.857422	51343.230469
965.705078	51023.609375
964.551758	50983.863281
963.398438	50885.585938
962.246094	51301.136719
961.092773	51174.656250
959.938477	51438.296875
958.785156	50845.992188
957.630859	50708.824219
956.476562	50757.976562
955.322266	51183.902344
954.166992	50782.601562
953.012695	50892.316406
951.857422	50984.671875
950.702148	50693.980469
949.546875	50440.171875
948.390625	50900.285156
947.235352	50629.226562
946.079102	50505.304688
944.921875	50725.171875
943.765625	50493.195312
942.609375	50447.160156
941.452148	50794.390625
940.294922	50281.679688
939.137695	50680.648438
937.979492	50666.996094
936.821289	50398.570312
935.664062	50577.097656
934.504883	50343.312500
933.346680	50597.308594
932.188477	50195.316406
931.029297	50498.855469
929.870117	50073.296875
928.710938	49945.472656
927.550781	50207.921875
926.391602	50621.160156
925.231445	50139.847656
924.071289	50294.371094
922.910156	50061.046875
921.750000	50228.445312
920.588867	50081.359375
919.427734	50330.507812
918.266602	49890.671875
917.105469	50163.437500
915.943359	49635.558594
914.781250	50218.093750
913.619141	50064.707031
912.457031	49853.296875
911.294922	50123.656250
910.131836	49570.460938
908.968750	50014.886719
907.805664	49728.414062
906.642578	50009.328125
905.478516	49546.789062
904.314453	49662.234375
903.150391	49584.347656
901.986328	49779.183594
900.821289	49551.023438
899.657227	49243.523438
898.492188	49485.523438
897.327148	49658.769531
896.161133	49344.980469
894.996094	49610.414062
893.830078	49466.156250
892.664062	49287.640625
891.498047	49347.140625
890.331055	49445.191406
889.165039	49069.632812
887.998047	49193.406250
886.831055	49674.859375
885.663086	49421.535156
884.496094	49230.398438
883.328125	49388.292969
882.160156	49068.800781
880.992188	49594.761719
879.824219	49084.910156
878.655273	49120.765625
877.486328	49458.195312
876.317383	48991.414062
875.148438	49217.558594
873.978516	49383.757812
872.808594	49045.480469
871.638672	49247.972656
870.468750	48993.167969
869.298828	49159.277344
868.127930	48787.113281
866.957031	49354.644531
865.786133	48602.550781
864.615234	48920.156250
863.443359	49197.089844
862.272461	48995.953125
861.100586	48961.292969
859.927734	49244.460938
858.755859	48983.707031
857.583008	49160.148438
856.411133	48861.128906
855.237305	49058.839844
854.064453	48881.414062
852.891602	48874.503906
851.717773	49325.593750
850.543945	49080.054688
849.370117	49183.832031
848.195312	48885.183594
847.021484	49416.816406
845.846680	49318.285156
844.671875	49196.378906
843.496094	48904.320312
842.321289	49390.878906
841.145508	49203.093750
839.969727	49523.562500
838.793945	49248.656250
837.618164	49237.414062
836.441406	49472.683594
835.264648	49134.191406
834.087891	49129.343750
832.911133	49313.523438
831.733398	49043.195312
830.555664	49267.660156
829.377930	48925.261719
828.200195	49179.371094
827.022461	49132.066406
825.843750	49139.937500
824.665039	49171.136719
823.486328	49206.562500
822.307617	49447.652344
821.127930	49139.566406
819.949219	49079.589844
818.769531	49443.476562
817.588867	49271.164062
816.409180	48948.503906
815.228516	49233.839844
814.047852	49084.949219
812.867188	49107.609375
811.686523	49202.230469
810.504883	49155.011719
809.324219	49344.808594
808.142578	48906.175781
806.959961	48981.718750
805.778320	49027.621094
804.595703	48737.300781
803.413086	48859.335938
802.230469	48892.546875
801.047852	48735.546875
799.864258	48392.660156
798.680664	48951.957031
797.497070	49149.867188
796.313477	48834.542969
795.129883	49389.218750
793.945312	48795.312500
792.760742	48809.472656
791.576172	49009.324219
790.390625	48626.792969
789.206055	48480.652344
788.020508	48372.531250
786.834961	48757.867188
785.649414	48626.535156
784.462891	48665.988281
783.276367	48800.261719
782.089844	48626.847656
780.903320	48375.550781
779.716797	48438.179688
778.529297	48353.371094
777.341797	48220.167969
776.154297	48457.507812
774.966797	48469.554688
773.778320	48256.433594
772.590820	48527.289062
771.402344	48600.312500
770.212891	48883.621094
769.024414	48849.304688
767.834961	48524.875000
766.645508	48713.441406
765.456055	48529.957031
764.266602	48382.257812
763.076172	48161.082031
761.886719	48278.156250
760.696289	48468.683594
759.504883	48421.882812
758.314453	47902.761719
757.123047	48487.832031
755.931641	48382.289062
754.740234	48136.207031
753.548828	48358.003906
752.356445	48229.460938
751.164062	48358.890625
749.971680	48161.207031
748.779297	48298.976562
747.585938	47933.718750
746.392578	48115.476562
745.199219	48064.628906
744.005859	48327.980469
742.812500	48088.625000
741.618164	47993.832031
740.423828	48192.148438
739.229492	48034.578125
738.035156	47958.671875
736.839844	47970.667969
735.644531	48087.250000
734.449219	48113.855469
733.253906	47793.328125
732.058594	47999.769531
730.862305	48197.773438
729.666016	48349.718750
728.469727	48041.917969
727.272461	48321.269531
726.076172	48274.671875
724.878906	47898.132812
723.681641	48269.218750
722.484375	47798.878906
721.286133	47979.906250
720.087891	47710.121094
718.889648	48001.671875
717.691406	47875.914062
716.493164	47946.246094
715.293945	47920.632812
714.094727	48055.554688
712.895508	47894.433594
711.695312	48135.597656
710.496094	48089.117188
709.295898	47917.660156
708.095703	47902.476562
706.895508	48099.714844
705.694336	48017.875000
704.493164	48092.191406
703.291992	47960.425781
702.090820	48149.171875
700.889648	47809.382812
699.687500	47856.632812
698.485352	47668.843750
697.283203	47963.546875
696.081055	48195.765625
694.877930	48041.273438
693.674805	48144.535156
692.471680	47900.757812
691.268555	47785.867188
690.065430	47754.105469
688.861328	47552.062500
687.657227	47933.535156
686.453125	47868.539062
685.248047	47764.128906
684.043945	47715.789062
682.838867	47933.031250
681.633789	47863.925781
680.427734	47977.355469
679.222656	47790.070312
678.016602	48077.613281
676.810547	47504.832031
675.604492	47717.710938
674.397461	47520.246094
673.190430	47712.320312
671.983398	47916.750000
670.776367	47702.785156
669.569336	47749.777344
668.361328	47937.519531
667.153320	47402.851562
665.945312	47456.078125
664.737305	47668.589844
663.528320	47736.218750
662.319336	47737.640625
661.110352	47677.023438
659.901367	47676.382812
658.692383	47586.859375
657.482422	47476.699219
656.272461	47215.746094
655.062500	47299.882812
653.851562	47571.945312
652.641602	47319.371094
651.430664	47277.488281
650.219727	47380.121094
649.007812	47224.722656
647.796875	47376.847656
646.584961	47240.070312
645.373047	47375.632812
644.161133	47028.539062
642.948242	47263.058594
641.735352	47309.878906
640.522461	47018.640625
639.309570	46838.796875
638.096680	47386.355469
636.882812	47210.625000
635.668945	47026.714844
634.455078	47370.054688
633.241211	46941.171875
632.026367	47090.894531
630.811523	47333.171875
629.596680	47155.578125
628.381836	47021.250000
627.166016	47088.554688
625.950195	47157.890625
624.734375	46875.585938
623.518555	46862.695312
622.302734	46855.976562
621.085938	47032.156250
619.869141	46893.906250
618.652344	47160.398438
617.435547	46749.000000
616.217773	46805.953125
615.000000	46940.906250
613.782227	47203.078125
612.564453	46980.785156
611.345703	46571.847656
610.126953	46815.468750
608.908203	46535.933594
607.689453	46623.601562
606.469727	46957.289062
605.250977	46602.027344
604.031250	46931.492188
602.810547	46908.347656
601.590820	46706.957031
600.370117	46862.082031
599.149414	46924.984375
597.928711	46789.222656
596.708008	47013.851562
595.486328	47187.218750
594.264648	46985.988281
593.042969	47142.917969
591.821289	47056.335938
590.598633	46650.691406
589.376953	47194.109375
588.154297	47134.140625
586.930664	46822.738281
585.708008	47034.699219
584.484375	46938.000000
583.260742	47129.421875
582.037109	46805.992188
580.813477	46850.312500
579.588867	47515.378906
578.364258	47134.886719
577.139648	47213.812500
575.914062	47088.621094
574.689453	47534.804688
573.463867	47719.691406
572.238281	47663.816406
571.012695	47675.261719
569.786133	47849.812500
568.559570	47979.449219
567.333008	48033.625000
566.106445	48556.464844
564.878906	48710.339844
563.652344	48762.300781
562.424805	49241.933594
561.197266	50263.031250
559.968750	50536.574219
558.740234	51569.253906
557.512695	52644.277344
556.283203	53725.000000
555.054688	55647.535156
553.825195	57329.335938
552.595703	58548.878906
551.366211	59456.878906
550.136719	59205.832031
548.906250	57961.015625
547.676758	57125.105469
546.446289	55263.511719
545.214844	53758.089844
543.984375	52618.796875
542.752930	51347.945312
541.521484	50597.289062
540.290039	49877.355469
539.057617	49437.746094
537.826172	48923.226562
536.593750	48151.261719
535.361328	47850.140625
534.127930	47762.050781
532.894531	47706.433594
531.662109	47484.613281
530.427734	46993.320312
529.194336	46903.425781
527.959961	46918.910156
526.726562	46948.566406
525.492188	46893.148438
524.256836	46451.015625
523.022461	46403.808594
521.787109	46548.898438
520.551758	46305.390625
519.316406	46373.558594
518.080078	45905.628906
516.843750	45923.277344
515.607422	46282.656250
514.371094	46255.746094
513.134766	45618.386719
511.897461	45670.425781
510.660156	45611.308594
509.422852	45911.812500
508.184570	45634.519531
506.947266	45316.945312
505.708984	45605.214844
504.470703	45318.039062
503.231445	45581.972656
501.993164	45581.453125
500.753906	45221.808594
499.514648	45465.433594
498.274414	45279.382812
497.035156	45549.117188
495.794922	45153.449219
494.554688	45935.078125
493.314453	45303.695312
492.073242	45482.539062
490.832031	45324.886719
489.590820	45614.433594
488.349609	45708.535156
487.108398	45470.390625
485.866211	45963.050781
484.624023	45666.578125
483.381836	45436.613281
482.138672	45788.167969
480.896484	46059.128906
479.653320	45951.894531
478.410156	45943.222656
477.166016	45753.621094
475.921875	45859.554688
474.678711	45557.500000
473.433594	45647.355469
472.189453	45096.351562
470.944336	45365.007812
469.700195	45334.355469
468.455078	45137.074219
467.208984	45313.226562
465.963867	45097.957031
464.717773	45133.585938
463.471680	45237.410156
462.224609	45375.289062
460.978516	45043.847656
459.731445	45380.207031
458.484375	45433.781250
457.237305	45397.136719
455.989258	44923.656250
454.742188	45257.773438
453.494141	44990.816406
452.245117	44906.210938
450.997070	44200.890625
449.748047	45167.519531
448.499023	44462.414062
447.250000	44816.238281
446.000977	44755.746094
444.750977	44787.296875
443.500977	44612.820312
442.250977	44512.398438
441.000000	44346.031250
439.750000	44293.671875
438.499023	44225.335938
437.248047	44286.914062
435.996094	43914.925781
434.745117	43832.714844
433.493164	44022.140625
432.241211	44081.703125
430.989258	44259.023438
429.736328	43609.945312
428.483398	43861.121094
427.230469	43900.707031
425.977539	44046.003906
424.723633	43834.234375
423.469727	43427.125000
422.215820	43454.792969
420.961914	43783.441406
419.708008	43763.199219
418.453125	43844.578125
417.198242	43670.929688
415.942383	43873.792969
414.687500	43694.222656
413.431641	43634.183594
412.175781	44127.574219
410.919922	43689.312500
409.664062	43967.589844
408.407227	43891.617188
407.150391	43584.929688
405.893555	43622.414062
404.635742	43383.496094
403.378906	43466.726562
402.121094	43673.160156
400.862305	43996.765625
399.604492	44357.996094
398.345703	44105.246094
397.086914	44345.160156
395.828125	44944.410156
394.569336	44814.781250
393.309570	45391.875000
392.049805	45367.394531
390.790039	44846.847656
389.530273	44961.347656
388.269531	44367.683594
387.008789	44125.257812
385.748047	44067.320312
384.487305	43836.937500
383.225586	44104.125000
381.963867	43447.761719
380.702148	43586.136719
379.440430	43421.378906
378.177734	43446.808594
376.915039	43488.070312
375.652344	43398.652344
374.389648	43245.921875
373.126953	43498.949219
371.863281	43334.382812
370.599609	43023.480469
369.334961	42997.515625
368.071289	43357.175781
366.806641	43202.636719
365.541992	43131.179688
364.277344	43273.199219
363.011719	43511.988281
361.746094	42934.742188
360.480469	43406.582031
359.214844	43151.476562
357.949219	43399.972656
356.682617	43662.187500
355.416016	43734.820312
354.149414	44004.761719
352.881836	44120.707031
351.614258	44159.667969
350.346680	44685.765625
349.079102	44448.535156
347.811523	45059.148438
346.542969	45569.000000
345.274414	45771.214844
344.005859	45610.796875
342.736328	45178.574219
341.466797	44590.910156
340.197266	44023.160156
338.927734	43544.226562
337.658203	42866.648438
336.387695	43000.207031
335.117188	42657.511719
333.846680	42684.812500
332.575195	42241.984375
331.304688	42043.183594
330.033203	42544.457031
328.761719	42489.183594
327.489258	42317.964844
326.216797	42327.601562
324.944336	42197.734375
323.671875	42445.082031
322.399414	42383.976562
321.125977	42733.300781
319.852539	42275.574219
318.579102	42540.378906
317.305664	42773.675781
316.031250	42679.199219
314.756836	42514.132812
313.482422	42560.960938
312.207031	42248.898438
310.932617	42119.292969
309.657227	41993.656250
308.381836	42034.660156
307.105469	41756.238281
305.830078	41973.593750
304.553711	41638.480469
303.277344	41791.140625
302.000000	41653.949219
300.722656	41413.050781
299.446289	41800.542969
298.167969	41757.355469
296.890625	41712.226562
295.612305	41952.718750
294.333984	42097.277344
293.055664	41586.707031
291.777344	41504.488281
290.498047	42190.500000
289.218750	41865.859375
287.939453	41900.867188
286.660156	41763.941406
285.379883	41920.054688
284.099609	41835.902344
282.819336	41654.156250
281.539062	41550.558594
280.257812	41132.773438
278.976562	41216.644531
277.695312	40939.550781
276.413086	41251.644531
275.131836	41154.066406
273.849609	41050.671875
272.567383	41017.500000
271.284180	41333.230469
270.001953	41216.214844
268.718750	41564.906250
267.435547	41786.839844
266.151367	42154.761719
264.868164	42464.125000
263.583984	43390.531250
262.298828	44530.703125
261.014648	45939.003906
259.729492	48082.273438
258.444336	50623.531250
257.159180	53159.925781
255.874023	54944.707031
254.587891	54815.617188
253.301758	53409.410156
252.015625	50946.445312
250.729492	48478.585938
249.442383	46184.578125
248.155273	44627.628906
246.868164	43387.832031
245.581055	42732.960938
244.292969	42212.285156
243.004883	41652.988281
241.716797	41437.386719
240.427734	41359.621094
239.139648	40942.410156
237.850586	40387.656250
236.560547	40504.039062
235.271484	40137.632812
233.981445	40056.304688
232.691406	40285.082031
231.401367	40151.437500
230.111328	40393.667969
228.820312	39729.339844
227.529297	39965.746094
226.238281	39985.210938
224.946289	39911.750000
223.655273	40175.070312
222.363281	39472.710938
221.070312	39883.050781
219.778320	39326.082031
218.485352	39150.308594
217.192383	38688.433594
215.899414	38226.734375
214.605469	38749.011719
213.312500	38268.148438
212.018555	38365.160156
210.723633	38402.246094
209.429688	38224.941406
208.134766	38012.941406
206.839844	37916.859375
205.544922	38145.089844
204.249023	37867.609375
202.954102	37611.453125
201.658203	37276.304688
200.361328	37564.265625
199.065430	37624.566406
197.768555	37312.734375
196.471680	37056.925781
195.174805	37061.390625
193.876953	37063.925781
192.579102	37332.320312
191.281250	37228.863281
189.983398	36990.636719
188.684570	36960.441406
187.385742	37151.640625
186.086914	37156.070312
184.788086	36760.238281
183.488281	36810.914062
182.188477	36801.933594
180.888672	36779.496094
179.588867	36607.082031
178.288086	36703.878906
176.988281	36785.257812
175.686523	36883.902344
174.385742	36967.132812
173.083984	36456.746094
171.782227	36895.339844
170.480469	36579.101562
169.178711	36443.453125
167.875977	36758.945312
166.573242	36504.324219
165.270508	36698.792969
163.967773	36964.171875
162.664062	36701.976562
161.360352	36562.613281
160.056641	36779.925781
158.751953	36625.261719
157.448242	37047.550781
156.143555	37281.882812
154.838867	37928.031250
153.533203	38436.015625
152.227539	38204.570312
150.921875	37846.835938
149.616211	36861.324219
148.310547	36373.832031
147.003906	36347.710938
145.697266	35963.816406
144.390625	35819.179688
143.083008	35586.621094
141.775391	35933.539062
140.467773	35544.277344
139.160156	35954.144531
137.851562	35819.195312
136.542969	35846.707031
135.234375	35486.406250
133.925781	35714.515625
132.616211	35925.347656
131.307617	35595.781250
129.998047	36316.222656
128.687500	36763.464844
127.377930	38441.281250
126.067383	41121.937500
124.756836	45401.871094
123.445312	48480.632812
122.133789	48337.843750
120.823242	43234.914062
119.510742	37179.070312
