#Wave		#Intensity
1999.091797	102271.773438
1998.124023	102592.101562
1997.156250	102421.835938
1996.187500	102533.109375
1995.219727	102582.367188
1994.250977	102933.648438
1993.282227	102923.445312
1992.313477	103150.664062
1991.344727	103135.265625
1990.375977	103179.195312
1989.406250	103558.421875
1988.437500	102526.882812
1987.467773	102960.218750
1986.498047	103421.765625
1985.528320	103228.460938
1984.557617	103682.054688
1983.587891	102924.492188
1982.617188	103012.164062
1981.646484	103305.851562
1980.675781	102896.398438
1979.705078	102587.500000
1978.733398	103208.039062
1977.762695	103442.281250
1976.791016	103807.671875
1975.819336	103244.085938
1974.847656	102788.742188
1973.875000	103658.179688
1972.903320	103658.093750
1971.930664	103953.695312
1970.958984	103560.218750
1969.986328	103855.726562
1969.012695	103395.585938
1968.040039	103768.085938
1967.066406	103585.562500
1966.093750	103631.695312
1965.120117	103975.703125
1964.146484	103400.375000
1963.172852	103431.101562
1962.198242	104370.429688
1961.224609	103787.625000
1960.250000	104154.382812
1959.275391	104331.164062
1958.300781	103751.226562
1957.326172	104312.679688
1956.350586	103999.593750
1955.375977	103822.492188
1954.400391	103430.140625
1953.424805	104439.710938
1952.449219	103824.468750
1951.473633	103965.164062
1950.497070	104005.914062
1949.520508	103882.742188
1948.544922	104486.781250
1947.568359	103905.328125
1946.590820	104468.195312
1945.614258	103615.671875
1944.637695	103689.671875
1943.660156	104262.500000
1942.682617	104446.343750
1941.705078	103666.007812
1940.727539	103867.781250
1939.749023	103992.789062
1938.771484	103726.679688
1937.792969	103741.765625
1936.814453	103930.593750
1935.835938	104216.429688
1934.857422	103873.828125
1933.877930	104031.875000
1932.899414	103597.492188
1931.919922	104345.234375
1930.940430	104281.046875
1929.960938	104063.757812
1928.980469	104543.101562
1928.000977	103981.445312
1927.020508	104287.187500
1926.040039	103860.914062
1925.059570	104763.203125
1924.079102	104092.257812
1923.098633	104344.226562
1922.117188	104473.773438
1921.135742	104361.226562
1920.155273	104141.710938
1919.172852	103840.765625
1918.191406	104118.007812
1917.209961	104624.296875
1916.227539	104135.031250
1915.245117	104098.984375
1914.262695	104676.257812
1913.280273	104016.750000
1912.297852	104087.585938
1911.314453	103766.687500
1910.332031	104376.656250
1909.348633	104577.046875
1908.365234	104268.937500
1907.381836	104090.554688
1906.397461	103724.171875
1905.414062	104681.687500
1904.429688	104922.476562
1903.445312	104769.484375
1902.460938	104207.687500
1901.476562	104052.328125
1900.491211	104953.078125
1899.506836	104465.140625
1898.521484	104274.273438
1897.536133	104174.820312
1896.550781	104207.304688
1895.565430	104153.539062
1894.579102	103866.484375
1893.592773	104570.898438
1892.607422	104075.992188
1891.621094	104328.960938
1890.633789	104622.375000
1889.647461	104510.296875
1888.660156	104195.593750
1887.673828	104648.437500
1886.686523	104528.796875
1885.699219	104262.351562
1884.710938	104426.343750
1883.723633	104119.500000
1882.735352	104708.585938
1881.748047	104826.859375
1880.759766	104391.078125
1879.770508	104203.320312
1878.782227	104893.117188
1877.793945	105082.054688
1876.804688	104618.710938
1875.815430	104822.781250
1874.826172	103919.929688
1873.836914	104609.156250
1872.846680	104221.992188
1871.857422	104923.539062
1870.867188	104430.382812
1869.876953	104760.492188
1868.886719	104656.289062
1867.896484	104887.796875
1866.905273	105028.375000
1865.915039	104570.937500
1864.923828	104673.671875
1863.932617	104092.859375
1862.941406	104742.859375
1861.949219	104578.242188
1860.958008	105033.812500
1859.965820	104571.781250
1858.973633	104631.546875
1857.981445	104953.320312
1856.989258	105088.562500
1855.997070	104966.851562
1855.003906	105318.601562
1854.010742	105078.546875
1853.017578	105264.000000
1852.024414	105142.328125
1851.031250	104446.945312
1850.037109	105263.914062
1849.043945	105056.765625
1848.049805	104922.625000
1847.055664	104406.289062
1846.060547	105182.445312
1845.066406	105214.250000
1844.072266	105540.101562
1843.077148	105559.250000
1842.082031	105560.812500
1841.086914	105517.148438
1840.090820	105265.031250
1839.095703	105726.164062
1838.099609	105476.601562
1837.104492	105832.101562
1836.108398	105381.812500
1835.111328	105029.546875
1834.115234	105713.593750
1833.119141	105690.000000
1832.122070	105811.875000
1831.125000	105239.093750
1830.127930	106145.742188
1829.130859	105560.562500
1828.132812	105855.289062
1827.135742	105846.703125
1826.137695	105244.335938
1825.139648	105711.796875
1824.141602	106189.101562
1823.142578	105752.250000
1822.144531	105816.273438
1821.145508	106015.445312
1820.146484	105578.843750
1819.147461	105795.492188
1818.148438	106014.562500
1817.148438	105400.570312
1816.149414	105787.195312
1815.149414	105991.140625
1814.149414	105839.984375
1813.149414	106188.820312
1812.149414	105772.757812
1811.148438	105871.593750
1810.148438	105942.906250
1809.147461	106266.476562
1808.146484	105858.171875
1807.144531	106116.710938
1806.143555	106504.984375
1805.142578	106371.414062
1804.140625	106512.421875
1803.138672	106256.617188
1802.136719	106911.523438
1801.133789	105882.468750
1800.131836	105916.203125
1799.128906	105944.937500
1798.125977	106347.609375
1797.123047	105618.484375
1796.120117	106676.523438
1795.117188	105526.476562
1794.113281	105473.007812
1793.110352	105905.289062
1792.106445	105801.960938
1791.101562	105706.140625
1790.097656	106317.382812
1789.093750	106403.195312
1788.088867	106272.460938
1787.083984	106231.351562
1786.079102	106075.804688
1785.074219	105547.203125
1784.069336	106307.023438
1783.063477	106330.562500
1782.057617	105936.429688
1781.051758	105969.960938
1780.045898	106587.492188
1779.040039	105997.210938
1778.034180	105650.601562
1777.027344	106054.242188
1776.020508	105990.843750
1775.013672	105947.335938
1774.006836	105727.570312
1773.000000	105584.828125
1771.992188	105816.859375
1770.984375	105770.914062
1769.976562	105982.976562
1768.968750	105579.835938
1767.960938	106362.234375
1766.953125	105584.750000
1765.944336	105685.125000
1764.935547	105688.796875
1763.926758	105211.687500
1762.917969	105738.242188
1761.908203	105665.085938
1760.899414	104571.484375
1759.889648	104934.406250
1758.879883	105817.164062
1757.870117	105347.937500
1756.860352	105507.562500
1755.849609	105773.531250
1754.839844	105277.335938
1753.829102	105694.156250
1752.818359	105613.664062
1751.807617	104494.562500
1750.795898	105361.281250
1749.785156	105211.664062
1748.773438	105474.859375
1747.761719	105404.351562
1746.750000	105412.921875
1745.738281	105354.789062
1744.725586	104834.796875
1743.712891	105571.945312
1742.701172	104963.203125
1741.688477	105171.781250
1740.674805	104948.351562
1739.662109	105309.851562
1738.648438	105143.218750
1737.635742	105213.453125
1736.622070	105308.328125
1735.608398	104786.664062
1734.593750	105379.609375
1733.580078	104934.531250
1732.565430	104967.750000
1731.550781	104927.031250
1730.536133	105093.281250
1729.521484	105557.531250
1728.506836	105339.382812
1727.491211	105197.640625
1726.475586	104918.078125
1725.459961	105020.156250
1724.444336	105220.640625
1723.428711	105541.625000
1722.412109	104578.210938
1721.396484	105164.851562
1720.379883	105288.914062
1719.363281	105656.367188
1718.345703	104774.726562
1717.329102	104571.843750
1716.311523	105167.781250
1715.293945	105264.679688
1714.276367	106137.898438
1713.258789	105735.929688
1712.241211	105523.210938
1711.222656	105646.968750
1710.205078	105407.320312
1709.186523	105894.343750
1708.167969	105774.984375
1707.148438	105523.164062
1706.129883	105727.757812
1705.110352	105836.601562
1704.090820	105356.812500
1703.071289	106142.445312
1702.051758	105368.562500
1701.032227	105278.835938
1700.011719	105228.343750
1698.991211	105381.250000
1697.971680	105820.726562
1696.950195	105388.039062
1695.929688	105844.500000
1694.909180	105524.585938
1693.887695	106073.882812
1692.866211	105998.812500
1691.844727	105441.640625
1690.823242	106171.710938
1689.800781	105519.289062
1688.779297	105114.140625
1687.756836	106059.078125
1686.734375	105517.039062
1685.711914	105630.367188
1684.688477	105269.468750
1683.666016	105739.585938
1682.642578	105562.039062
1681.619141	105880.468750
1680.595703	105163.156250
1679.572266	105711.093750
1678.547852	105416.453125
1677.524414	105739.554688
1676.500000	105786.718750
1675.475586	105697.210938
1674.451172	105641.882812
1673.425781	105569.492188
1672.401367	105192.242188
1671.375977	105197.984375
1670.350586	105857.164062
1669.325195	105619.000000
1668.299805	105288.304688
1667.273438	105810.632812
1666.247070	105974.609375
1665.220703	105307.835938
1664.194336	105403.640625
1663.167969	105584.640625
1662.141602	105371.140625
1661.114258	105359.757812
1660.086914	105613.671875
1659.059570	105485.437500
1658.032227	105466.734375
1657.004883	105102.601562
1655.976562	105307.718750
1654.948242	105060.460938
1653.919922	105199.859375
1652.891602	104814.132812
1651.863281	104880.609375
1650.833984	105245.937500
1649.805664	104663.609375
1648.776367	105354.343750
1647.747070	104925.203125
1646.717773	105316.960938
1645.687500	105040.921875
1644.658203	104522.234375
1643.627930	104697.843750
1642.597656	104402.632812
1641.567383	104442.328125
1640.536133	105015.664062
1639.505859	104233.062500
1638.474609	104243.656250
1637.443359	104547.593750
1636.412109	104313.304688
1635.380859	104113.015625
1634.348633	104026.679688
1633.316406	104563.007812
1632.285156	104951.375000
1631.252930	103794.484375
1630.219727	104483.093750
1629.187500	104227.281250
1628.154297	104308.015625
1627.121094	103645.742188
1626.087891	103728.953125
1625.054688	104283.890625
1624.021484	103822.718750
1622.987305	104060.625000
1621.954102	103788.250000
1620.919922	103987.382812
1619.885742	103632.929688
1618.850586	103984.265625
1617.816406	103924.710938
1616.781250	102932.671875
1615.746094	103779.085938
1614.710938	103770.296875
1613.675781	104019.867188
1612.639648	103347.156250
1611.604492	102932.945312
1610.568359	103838.914062
1609.532227	103666.031250
1608.496094	103635.539062
1607.458984	103851.070312
1606.422852	103719.265625
1605.385742	103507.929688
1604.348633	103431.671875
1603.311523	102967.382812
1602.274414	103062.328125
1601.236328	103631.882812
1600.198242	103300.289062
1599.160156	103597.429688
1598.122070	103138.320312
1597.083984	102968.289062
1596.045898	103378.460938
1595.006836	103463.554688
1593.967773	103093.820312
1592.928711	103556.664062
1591.889648	103153.351562
1590.849609	103652.085938
1589.810547	103390.773438
1588.770508	103343.523438
1587.730469	103060.710938
1586.690430	103225.023438
1585.650391	102509.789062
1584.609375	102964.835938
1583.568359	102948.914062
1582.527344	103103.500000
1581.486328	103135.570312
1580.445312	103316.476562
1579.403320	102995.632812
1578.362305	103879.671875
1577.320312	102877.367188
1576.278320	103000.593750
1575.236328	103608.304688
1574.193359	103007.070312
1573.150391	103137.390625
1572.108398	103756.726562
1571.065430	104061.828125
1570.021484	103580.757812
1568.978516	103543.140625
1567.934570	102928.164062
1566.891602	103302.648438
1565.847656	103078.281250
1564.803711	103114.984375
1563.758789	103735.804688
1562.714844	103241.000000
1561.669922	103603.101562
1560.625000	103240.093750
1559.580078	103855.640625
1558.535156	103054.992188
1557.489258	103672.742188
1556.443359	103374.515625
1555.398438	103783.992188
1554.351562	103638.812500
1553.305664	103159.117188
1552.259766	103781.054688
1551.212891	103024.382812
1550.166016	103803.750000
1549.119141	103033.015625
1548.072266	103205.648438
1547.025391	103726.734375
1545.977539	103405.117188
1544.929688	103725.531250
1543.881836	103812.000000
1542.833984	103674.210938
1541.786133	103562.695312
1540.737305	102752.531250
1539.688477	103740.320312
1538.639648	103118.718750
1537.590820	103419.679688
1536.541992	103761.046875
1535.493164	103151.671875
1534.443359	103345.265625
1533.393555	103710.257812
1532.343750	103315.515625
1531.293945	103294.695312
1530.243164	103471.445312
1529.192383	103007.921875
1528.142578	102877.695312
1527.091797	103482.648438
1526.040039	102793.390625
1524.989258	102815.460938
1523.937500	103586.531250
1522.885742	103351.687500
1521.833984	103216.765625
1520.782227	103466.875000
1519.730469	102840.109375
1518.677734	103244.609375
1517.625000	103439.937500
1516.572266	103620.945312
1515.519531	103383.992188
1514.466797	103579.179688
1513.413086	102471.203125
1512.360352	103224.164062
1511.306641	102866.421875
1510.252930	102627.414062
1509.198242	103171.203125
1508.144531	102718.796875
1507.089844	102657.757812
1506.035156	102793.492188
1504.980469	102587.875000
1503.925781	103173.820312
1502.870117	102861.585938
1501.815430	102916.625000
1500.759766	102950.335938
1499.704102	102832.468750
1498.647461	102110.898438
1497.591797	102603.953125
1496.535156	101769.062500
1495.479492	102103.453125
1494.421875	102404.585938
1493.365234	102159.179688
1492.308594	102159.828125
1491.250977	102056.429688
1490.193359	101584.234375
1489.135742	102622.687500
1488.078125	102268.726562
1487.020508	101886.531250
1485.961914	101870.664062
1484.904297	102142.976562
1483.845703	101560.250000
1482.786133	101386.226562
1481.727539	101502.656250
1480.668945	101637.914062
1479.609375	101504.085938
1478.549805	101530.742188
1477.490234	101522.007812
1476.429688	101541.570312
1475.370117	101096.539062
1474.309570	101547.656250
1473.249023	101364.453125
1472.188477	101115.312500
1471.127930	101448.343750
1470.066406	101255.812500
1469.005859	101018.593750
1467.944336	101711.820312
1466.882812	100878.789062
1465.820312	101611.812500
1464.758789	101045.109375
1463.696289	101302.390625
1462.633789	101074.796875
1461.571289	100661.414062
1460.508789	100777.468750
1459.446289	101472.062500
1458.382812	101359.820312
1457.319336	101247.609375
1456.255859	101203.601562
1455.192383	100830.570312
1454.128906	100676.203125
1453.064453	101170.343750
1452.000000	100976.031250
1450.935547	101108.242188
1449.871094	100902.257812
1448.806641	100494.437500
1447.741211	100807.398438
1446.675781	100413.812500
1445.610352	100210.437500
1444.544922	100201.851562
1443.479492	99923.507812
1442.413086	100226.890625
1441.346680	100966.296875
1440.280273	100221.414062
1439.213867	100304.234375
1438.147461	100300.304688
1437.080078	100247.164062
1436.013672	100554.820312
1434.946289	99941.828125
1433.878906	100371.195312
1432.810547	99976.210938
1431.743164	100318.796875
1430.674805	99788.195312
1429.606445	100198.546875
1428.538086	100494.093750
1427.469727	99930.984375
1426.400391	100474.398438
1425.331055	100472.734375
1424.262695	99942.648438
1423.192383	99863.929688
1422.123047	99528.125000
1421.053711	99900.515625
1419.983398	100599.859375
1418.913086	99845.953125
1417.842773	99407.617188
1416.772461	100316.828125
1415.701172	99710.453125
1414.630859	99636.523438
1413.559570	99303.546875
1412.488281	99941.421875
1411.416016	99132.562500
1410.344727	99457.648438
1409.272461	99857.257812
1408.200195	99566.492188
1407.127930	99487.984375
1406.055664	100017.890625
1404.983398	99393.968750
1403.910156	99152.414062
1402.836914	99318.648438
1401.763672	99426.578125
1400.690430	99187.460938
1399.617188	99733.125000
1398.542969	99438.164062
1397.468750	99762.445312
1396.394531	99770.117188
1395.320312	98900.570312
1394.245117	99110.773438
1393.170898	99393.000000
1392.095703	99275.132812
1391.020508	99157.296875
1389.945312	98955.812500
1388.869141	98491.757812
1387.793945	98743.609375
1386.717773	99134.773438
1385.641602	99047.257812
1384.565430	98671.757812
1383.488281	98763.148438
1382.412109	99286.351562
1381.334961	98709.046875
1380.257812	98856.070312
1379.180664	98775.625000
1378.102539	98620.968750
1377.025391	98208.875000
1375.947266	98395.296875
1374.869141	98753.242188
1373.791016	98281.054688
1372.711914	98126.601562
1371.633789	98683.703125
1370.554688	98019.445312
1369.475586	98326.140625
1368.396484	98482.171875
1367.316406	98059.148438
1366.237305	98398.085938
1365.157227	97859.468750
1364.077148	98494.585938
1362.997070	97470.140625
1361.916016	98482.250000
1360.835938	97974.062500
1359.754883	97958.734375
1358.673828	97633.507812
1357.592773	98295.703125
1356.511719	98016.765625
1355.429688	97832.695312
1354.347656	98004.562500
1353.265625	97601.046875
1352.183594	97516.468750
1351.101562	97981.617188
1350.018555	97679.921875
1348.935547	97817.015625
1347.852539	97607.781250
1346.769531	97728.671875
1345.686523	97355.687500
1344.602539	97686.523438
1343.519531	97696.593750
1342.435547	97169.273438
1341.350586	97511.484375
1340.266602	96816.078125
1339.181641	97379.507812
1338.097656	97650.031250
1337.012695	97505.687500
1335.926758	97250.804688
1334.841797	97214.843750
1333.756836	97413.789062
1332.670898	97334.046875
1331.584961	97284.257812
1330.499023	97071.062500
1329.412109	97654.203125
1328.326172	97054.445312
1327.239258	97400.421875
1326.152344	100757.132812
1325.065430	99136.054688
1323.977539	97069.492188
1322.890625	96950.820312
1321.802734	96956.304688
1320.714844	97382.335938
1319.626953	96452.593750
1318.538086	96940.570312
1317.450195	96346.570312
1316.361328	97369.445312
1315.272461	96803.132812
1314.183594	96872.882812
1313.093750	96958.671875
1312.004883	96420.257812
1310.915039	96487.742188
1309.825195	96548.304688
1308.735352	96576.742188
1307.644531	96967.468750
1306.554688	96521.226562
1305.463867	96941.609375
1304.373047	96195.296875
1303.282227	96789.726562
1302.190430	95826.054688
1301.099609	96010.312500
1300.007812	96249.468750
1298.916016	95645.890625
1297.824219	96118.531250
1296.731445	95998.156250
1295.639648	96294.335938
1294.546875	96206.000000
1293.454102	95710.484375
1292.361328	96043.140625
1291.267578	95552.398438
1290.174805	95601.429688
1289.081055	95931.625000
1287.987305	95418.296875
1286.892578	95513.023438
1285.798828	96082.945312
1284.704102	96453.921875
1283.609375	95438.375000
1282.514648	95670.031250
1281.419922	95527.148438
1280.325195	95630.859375
1279.229492	95442.390625
1278.133789	95694.390625
1277.038086	95261.843750
1275.942383	95059.843750
1274.845703	95163.515625
1273.750000	95372.046875
1272.653320	95001.414062
1271.556641	94763.117188
1270.458984	95901.437500
1269.362305	94680.968750
1268.264648	94618.273438
1267.166992	94671.757812
1266.069336	94666.007812
1264.971680	95122.484375
1263.873047	94681.820312
1262.775391	94653.304688
1261.676758	94670.304688
1260.578125	94425.632812
1259.478516	94570.046875
1258.379883	94452.851562
1257.280273	94440.289062
1256.180664	94457.296875
1255.081055	94033.273438
1253.981445	93663.953125
1252.880859	94417.343750
1251.780273	94568.367188
1250.679688	94133.257812
1249.579102	94461.429688
1248.478516	93849.367188
1247.376953	93714.304688
1246.276367	94012.851562
1245.174805	93939.078125
1244.072266	94207.968750
1242.970703	94503.976562
1241.868164	94323.531250
1240.766602	93979.859375
1239.664062	94198.640625
1238.560547	93721.351562
1237.458008	94180.359375
1236.354492	93553.664062
1235.251953	94089.570312
1234.148438	93567.320312
1233.043945	93625.101562
1231.940430	93503.945312
1230.835938	93765.492188
1229.731445	93805.078125
1228.626953	93430.453125
1227.522461	93707.695312
1226.417969	93634.132812
1225.312500	93164.718750
1224.207031	94145.250000
1223.101562	93725.648438
1221.996094	93333.335938
1220.889648	93420.382812
1219.784180	93367.273438
1218.677734	93275.757812
1217.571289	93243.015625
1216.463867	93334.523438
1215.357422	93295.000000
1214.250000	93470.000000
1213.142578	93247.585938
1212.035156	93758.859375
1210.927734	93337.867188
1209.819336	93440.507812
1208.710938	93466.406250
1207.603516	93241.921875
1206.494141	93213.718750
1205.385742	93674.804688
1204.276367	93470.679688
1203.167969	93870.687500
1202.058594	93369.132812
1200.948242	93503.132812
1199.838867	93278.898438
1198.728516	93766.476562
1197.619141	93425.164062
1196.508789	92903.859375
1195.397461	92956.757812
1194.287109	93882.906250
1193.175781	93582.312500
1192.064453	93585.562500
1190.953125	93231.132812
1189.841797	93504.320312
1188.730469	93557.031250
1187.618164	93504.054688
1186.505859	93309.484375
1185.393555	93038.562500
1184.281250	93513.750000
1183.167969	92735.148438
1182.055664	93324.757812
1180.942383	92806.984375
1179.829102	93133.648438
1178.714844	92934.875000
1177.601562	93106.515625
1176.487305	93230.968750
1175.373047	93220.742188
1174.258789	93145.460938
1173.143555	93207.023438
1172.029297	93165.398438
1170.914062	93372.664062
1169.798828	92842.328125
1168.683594	93071.976562
1167.568359	93357.562500
1166.452148	92908.164062
1165.335938	92922.617188
1164.219727	92439.859375
1163.103516	92512.609375
1161.986328	92549.500000
1160.870117	92344.625000
1159.752930	92410.625000
1158.635742	92630.992188
1157.518555	92764.023438
1156.400391	92427.273438
1155.282227	92408.210938
1154.164062	92042.570312
1153.045898	92526.578125
1151.927734	92114.109375
1150.808594	92025.820312
1149.690430	92297.289062
1148.571289	91835.921875
1147.452148	91973.312500
1146.332031	91728.781250
1145.212891	92051.445312
1144.092773	91865.023438
1142.972656	91421.984375
1141.852539	91412.023438
1140.731445	91904.062500
1139.611328	91456.789062
1138.490234	91678.765625
1137.369141	91140.265625
1136.248047	91177.164062
1135.125977	91481.531250
1134.003906	91297.710938
1132.882812	91156.289062
1131.760742	91384.734375
1130.637695	90655.289062
1129.515625	91064.125000
1128.392578	90985.179688
1127.269531	90872.859375
1126.146484	90827.359375
1125.023438	90759.609375
1123.899414	91034.539062
1122.775391	91191.453125
1121.651367	91221.531250
1120.527344	90802.382812
1119.403320	90714.671875
1118.278320	90964.882812
1117.153320	90617.125000
1116.028320	90145.046875
1114.903320	90275.234375
1113.778320	91229.500000
1112.652344	90548.789062
1111.526367	89803.921875
1110.400391	90582.343750
1109.274414	90667.921875
1108.147461	90886.625000
1107.021484	90949.921875
1105.894531	90090.273438
1104.767578	89971.796875
1103.639648	90629.554688
1102.512695	90049.812500
1101.384766	90314.921875
1100.256836	89950.437500
1099.128906	90423.773438
1098.000000	90021.726562
1096.872070	90160.359375
1095.743164	90387.531250
1094.614258	89731.031250
1093.485352	90409.867188
1092.355469	90050.234375
1091.226562	89923.117188
1090.096680	90519.656250
1088.966797	90346.031250
1087.835938	90092.835938
1086.706055	90549.664062
1085.575195	89927.234375
1084.444336	89744.992188
1083.313477	90458.039062
1082.182617	89933.195312
1081.050781	89903.500000
1079.918945	90404.023438
1078.787109	89426.664062
1077.655273	90393.062500
1076.523438	90045.335938
1075.390625	89885.375000
1074.257812	89687.953125
1073.125000	89872.367188
1071.992188	89235.937500
1070.859375	89852.742188
1069.725586	89600.304688
1068.591797	89308.273438
1067.458008	90140.781250
1066.324219	90212.468750
1065.189453	90200.375000
1064.054688	89597.718750
1062.919922	89909.601562
1061.785156	89871.125000
1060.650391	89374.562500
1059.514648	89488.125000
1058.378906	89491.562500
1057.243164	89983.656250
1056.107422	89962.789062
1054.971680	90126.750000
1053.834961	89899.054688
1052.698242	89878.203125
1051.561523	89679.218750
1050.424805	89761.750000
1049.287109	89932.171875
1048.150391	89214.562500
1047.012695	89925.617188
1045.874023	90357.367188
1044.736328	88921.726562
1043.597656	89542.375000
1042.459961	89165.843750
1041.321289	88640.148438
1040.181641	89528.304688
1039.042969	89301.210938
1037.903320	89240.968750
1036.764648	89268.500000
1035.624023	88833.179688
1034.484375	88643.648438
1033.344727	89278.640625
1032.204102	89591.132812
1031.063477	89033.312500
1029.922852	88686.070312
1028.782227	88619.421875
1027.640625	89008.460938
1026.499023	89018.429688
1025.357422	89177.304688
1024.215820	89351.445312
1023.074219	88967.296875
1021.931641	88808.718750
1020.789062	88343.828125
1019.646484	88146.039062
1018.503906	88700.812500
1017.360352	88671.421875
1016.216797	88753.554688
1015.074219	88326.257812
1013.929688	88644.500000
1012.786133	88451.210938
1011.641602	88327.914062
1010.498047	88385.992188
1009.353516	88011.554688
1008.208008	88713.906250
1007.063477	88304.601562
1005.917969	88063.539062
1004.772461	88235.085938
1003.626953	87911.195312
1002.481445	88124.156250
1001.335938	88260.687500
1000.189453	88179.054688
999.042969	88195.578125
997.896484	88336.367188
996.749023	87971.367188
995.602539	88105.601562
994.455078	88289.898438
993.307617	88554.734375
992.160156	88074.500000
991.011719	87866.671875
989.864258	88251.195312
988.715820	87975.914062
987.567383	88249.250000
986.417969	87993.648438
985.269531	88290.812500
984.120117	88122.304688
982.970703	88269.250000
981.821289	87857.242188
980.670898	88023.734375
979.521484	88283.640625
978.371094	88491.289062
977.220703	88079.523438
976.070312	88124.171875
974.918945	87918.984375
973.768555	88033.140625
972.617188	88320.968750
971.464844	88586.968750
970.313477	88384.007812
969.162109	88324.351562
968.009766	88132.351562
966.857422	88118.312500
965.705078	87900.382812
964.551758	87738.914062
963.398438	87959.125000
962.246094	87789.023438
961.092773	87861.742188
959.938477	87990.781250
958.785156	88176.093750
957.630859	87936.742188
956.476562	87855.585938
955.322266	88194.570312
954.166992	87732.328125
953.012695	88131.804688
951.857422	87916.476562
950.702148	87532.429688
949.546875	87775.937500
948.390625	87660.281250
947.235352	87674.421875
946.079102	87669.093750
944.921875	88158.843750
943.765625	87701.664062
942.609375	87540.726562
941.452148	87548.375000
940.294922	87605.703125
939.137695	87598.210938
937.979492	87491.375000
936.821289	87727.882812
935.664062	87448.359375
934.504883	87447.359375
933.346680	86975.929688
932.188477	87324.531250
931.029297	86866.226562
929.870117	87536.070312
928.710938	87125.328125
927.550781	87051.062500
926.391602	86847.492188
925.231445	87792.687500
924.071289	86772.390625
922.910156	86752.085938
921.750000	86710.250000
920.588867	87224.046875
919.427734	86801.015625
918.266602	86991.679688
917.105469	87173.664062
915.943359	86572.250000
914.781250	86820.929688
913.619141	86400.500000
912.457031	86066.250000
911.294922	86626.687500
910.131836	86516.109375
908.968750	86594.734375
907.805664	86550.820312
906.642578	86401.632812
905.478516	86093.507812
904.314453	86511.523438
903.150391	85619.328125
901.986328	86015.804688
900.821289	85834.625000
899.657227	86187.968750
898.492188	86000.382812
897.327148	86261.296875
896.161133	85698.343750
894.996094	85839.093750
893.830078	85778.218750
892.664062	85981.078125
891.498047	85287.804688
890.331055	85445.664062
889.165039	85948.468750
887.998047	85444.109375
886.831055	85777.492188
885.663086	85956.546875
884.496094	85493.140625
883.328125	85085.570312
882.160156	85654.210938
880.992188	85584.882812
879.824219	85224.585938
878.655273	85491.226562
877.486328	85406.984375
876.317383	85399.765625
875.148438	85026.914062
873.978516	85549.914062
872.808594	84860.843750
871.638672	85349.476562
870.468750	85626.414062
869.298828	85031.687500
868.127930	85214.593750
866.957031	85171.085938
865.786133	85612.226562
864.615234	85116.117188
863.443359	85409.835938
862.272461	85402.578125
861.100586	84975.046875
859.927734	85319.804688
858.755859	85760.406250
857.583008	85563.304688
856.411133	85732.953125
855.237305	85548.710938
854.064453	85999.578125
852.891602	85193.210938
851.717773	85307.390625
850.543945	85992.328125
849.370117	85433.406250
848.195312	85340.953125
847.021484	85118.679688
845.846680	85628.609375
844.671875	85165.914062
843.496094	85816.046875
842.321289	85476.851562
841.145508	85546.093750
839.969727	85717.375000
838.793945	85637.726562
837.618164	85641.000000
836.441406	85810.031250
835.264648	85462.687500
834.087891	85669.914062
832.911133	85522.367188
831.733398	85289.929688
830.555664	85666.914062
829.377930	85619.203125
828.200195	85312.585938
827.022461	85893.054688
825.843750	85720.148438
824.665039	85184.578125
823.486328	84948.226562
822.307617	85697.953125
821.127930	85639.671875
819.949219	85079.062500
818.769531	85843.171875
817.588867	85630.210938
816.409180	85368.601562
815.228516	85225.695312
814.047852	85665.187500
812.867188	85412.179688
811.686523	85159.257812
810.504883	85731.843750
809.324219	85146.726562
808.142578	85221.906250
806.959961	85498.015625
805.778320	85655.585938
804.595703	85409.218750
803.413086	85274.984375
802.230469	85859.468750
801.047852	85270.828125
799.864258	85335.296875
798.680664	85710.289062
797.497070	85573.992188
796.313477	84998.500000
795.129883	85318.437500
793.945312	85180.171875
792.760742	85008.179688
791.576172	85498.851562
790.390625	85303.648438
789.206055	84943.976562
788.020508	84651.929688
786.834961	84914.554688
785.649414	85354.171875
784.462891	85060.085938
783.276367	85033.757812
782.089844	84973.718750
780.903320	85366.632812
779.716797	84881.085938
778.529297	84713.695312
777.341797	84815.867188
776.154297	84764.328125
774.966797	84742.265625
773.778320	84412.984375
772.590820	84853.851562
771.402344	84810.742188
770.212891	84597.289062
769.024414	84728.765625
767.834961	84858.085938
766.645508	85033.593750
765.456055	85223.750000
764.266602	84634.281250
763.076172	84912.664062
761.886719	84182.742188
760.696289	84578.695312
759.504883	84143.046875
758.314453	84461.179688
757.123047	84437.085938
755.931641	84293.375000
754.740234	84758.164062
753.548828	84379.500000
752.356445	83925.476562
751.164062	84448.773438
749.971680	84225.507812
748.779297	84423.648438
747.585938	84028.617188
746.392578	84115.656250
745.199219	84307.406250
744.005859	84210.031250
742.812500	84223.679688
741.618164	84455.078125
740.423828	84399.585938
739.229492	84249.929688
738.035156	84340.968750
736.839844	84471.726562
735.644531	83876.562500
734.449219	84172.578125
733.253906	84322.101562
732.058594	84080.609375
730.862305	83557.015625
729.666016	84383.687500
728.469727	84048.281250
727.272461	83982.492188
726.076172	83943.875000
724.878906	84041.007812
723.681641	84434.593750
722.484375	84324.929688
721.286133	84044.148438
720.087891	83957.546875
718.889648	83962.765625
717.691406	84032.648438
716.493164	84206.781250
715.293945	83788.640625
714.094727	83647.937500
712.895508	84059.664062
711.695312	83921.039062
710.496094	83876.226562
709.295898	83985.585938
708.095703	83849.125000
706.895508	83606.500000
705.694336	84554.937500
704.493164	83845.953125
703.291992	83957.281250
702.090820	84235.039062
700.889648	83848.992188
699.687500	83835.437500
698.485352	84002.820312
697.283203	83889.421875
696.081055	83715.765625
694.877930	83829.031250
693.674805	83667.914062
692.471680	83833.078125
691.268555	83667.859375
690.065430	84107.125000
688.861328	83431.046875
687.657227	84312.437500
686.453125	83933.421875
685.248047	84046.437500
684.043945	84267.320312
682.838867	83544.101562
681.633789	84312.617188
680.427734	84591.382812
679.222656	83856.046875
678.016602	83465.140625
676.810547	84044.460938
675.604492	83605.992188
674.397461	83702.265625
673.190430	84007.742188
671.983398	83528.085938
670.776367	84200.023438
669.569336	83863.367188
668.361328	83812.507812
667.153320	83351.859375
665.945312	83541.156250
664.737305	83266.929688
663.528320	83143.804688
662.319336	83370.242188
661.110352	83553.171875
659.901367	83467.265625
658.692383	83348.320312
657.482422	83659.265625
656.272461	83259.304688
655.062500	83553.625000
653.851562	83007.179688
652.641602	83068.062500
651.430664	83075.250000
650.219727	83202.148438
649.007812	83440.453125
647.796875	83546.601562
646.584961	82963.609375
645.373047	83408.093750
644.161133	83291.437500
642.948242	82756.234375
641.735352	82610.867188
640.522461	82822.148438
639.309570	82734.523438
638.096680	83017.812500
636.882812	83533.773438
635.668945	82885.820312
634.455078	82705.570312
633.241211	82681.851562
632.026367	82841.351562
630.811523	83019.312500
629.596680	82952.328125
628.381836	82661.117188
627.166016	82390.578125
625.950195	82288.773438
624.734375	82770.968750
623.518555	82286.742188
622.302734	82148.007812
621.085938	82691.601562
619.869141	82129.570312
618.652344	82430.546875
617.435547	82193.289062
616.217773	82023.875000
615.000000	82439.671875
613.782227	82494.023438
612.564453	82624.281250
611.345703	82413.867188
610.126953	82464.078125
608.908203	82136.835938
607.689453	82250.648438
606.469727	82091.703125
605.250977	82324.375000
604.031250	82358.132812
602.810547	82141.867188
601.590820	82216.617188
600.370117	81576.406250
599.149414	82257.484375
597.928711	82283.015625
596.708008	81667.703125
595.486328	81928.734375
594.264648	82120.078125
593.042969	82462.765625
591.821289	81718.976562
590.598633	82603.648438
589.376953	81878.515625
588.154297	82460.210938
586.930664	82367.054688
585.708008	82059.320312
584.484375	81766.000000
583.260742	82431.031250
582.037109	82476.843750
580.813477	82169.304688
579.588867	82245.773438
578.364258	81881.218750
577.139648	82414.945312
575.914062	82883.156250
574.689453	82249.335938
573.463867	82421.578125
572.238281	82102.187500
571.012695	82262.156250
569.786133	82020.390625
568.559570	82408.617188
567.333008	82069.078125
566.106445	82379.710938
564.878906	82462.031250
563.652344	82110.429688
562.424805	82333.296875
561.197266	82389.093750
559.968750	82733.968750
558.740234	82437.523438
557.512695	82568.562500
556.283203	83218.406250
555.054688	83027.812500
553.825195	82875.937500
552.595703	83301.648438
551.366211	83656.031250
550.136719	84018.414062
548.906250	83212.000000
547.676758	82708.664062
546.446289	82758.125000
545.214844	82336.312500
543.984375	81890.273438
542.752930	81980.460938
541.521484	81867.601562
540.290039	82020.671875
539.057617	81132.617188
537.826172	81007.789062
536.593750	81221.781250
535.361328	80987.453125
534.127930	80852.578125
532.894531	80587.984375
531.662109	80611.335938
530.427734	80853.562500
529.194336	81073.398438
527.959961	80802.875000
526.726562	80017.953125
525.492188	80523.367188
524.256836	81020.484375
523.022461	79984.921875
521.787109	80237.039062
520.551758	80735.945312
519.316406	80026.757812
518.080078	79971.234375
516.843750	79695.273438
515.607422	79678.242188
514.371094	79452.976562
513.134766	79725.046875
511.897461	79534.203125
510.660156	79476.789062
509.422852	79936.570312
508.184570	79450.890625
506.947266	79549.007812
505.708984	79313.937500
504.470703	79967.187500
503.231445	79413.226562
501.993164	79464.851562
500.753906	79423.648438
499.514648	79678.984375
498.274414	79486.484375
497.035156	79519.898438
495.794922	79668.210938
494.554688	79721.718750
493.314453	79734.906250
492.073242	80163.148438
490.832031	79986.875000
489.590820	79125.851562
488.349609	79294.179688
487.108398	79842.976562
485.866211	79898.367188
484.624023	80551.492188
483.381836	79445.656250
482.138672	79452.804688
480.896484	79220.570312
479.653320	79887.390625
478.410156	79723.523438
477.166016	79780.851562
475.921875	80268.296875
474.678711	79796.968750
473.433594	79243.437500
472.189453	79628.242188
470.944336	78992.593750
469.700195	79774.890625
468.455078	79442.617188
467.208984	79228.890625
465.963867	79294.210938
464.717773	79660.484375
463.471680	79444.828125
462.224609	79768.804688
460.978516	79368.695312
459.731445	79147.187500
458.484375	79038.015625
457.237305	79574.265625
455.989258	79168.476562
454.742188	79403.960938
453.494141	79120.539062
452.245117	78366.562500
450.997070	79268.851562
449.748047	78873.492188
448.499023	79114.796875
447.250000	78797.648438
446.000977	79130.914062
444.750977	78829.882812
443.500977	78612.968750
442.250977	77832.203125
441.000000	77789.500000
439.750000	78168.593750
438.499023	78083.859375
437.248047	78147.031250
435.996094	77952.445312
434.745117	78225.335938
433.493164	77685.304688
432.241211	77800.398438
430.989258	77625.976562
429.736328	78307.882812
428.483398	77812.132812
427.230469	77697.648438
425.977539	77766.734375
424.723633	77598.445312
423.469727	77168.992188
422.215820	77405.593750
420.961914	77526.492188
419.708008	77515.804688
418.453125	77062.765625
417.198242	77265.328125
415.942383	77382.164062
414.687500	77321.710938
413.431641	77237.382812
412.175781	77097.343750
410.919922	77363.382812
409.664062	77422.359375
408.407227	77216.695312
407.150391	77027.023438
405.893555	76891.117188
404.635742	77335.882812
403.378906	77267.554688
402.121094	76863.335938
400.862305	77395.281250
399.604492	77676.664062
398.345703	77520.906250
397.086914	77508.195312
395.828125	77610.671875
394.569336	77327.929688
393.309570	77360.921875
392.049805	77304.578125
390.790039	77605.421875
389.530273	77521.273438
388.269531	77597.820312
387.008789	77146.812500
385.748047	77354.257812
384.487305	77030.335938
383.225586	77366.546875
381.963867	77684.796875
380.702148	77097.468750
379.440430	77197.742188
378.177734	77173.195312
376.915039	77012.023438
375.652344	77429.007812
374.389648	77180.750000
373.126953	76936.539062
371.863281	77141.570312
370.599609	77243.648438
369.334961	77693.796875
368.071289	77277.617188
366.806641	77427.054688
365.541992	78505.507812
364.277344	78223.796875
363.011719	78714.804688
361.746094	79893.156250
360.480469	80478.468750
359.214844	81533.578125
357.949219	83141.156250
356.682617	84412.507812
355.416016	86366.304688
354.149414	87656.289062
352.881836	89383.789062
351.614258	90250.554688
350.346680	91493.695312
349.079102	93351.585938
347.811523	96496.171875
346.542969	99444.421875
345.274414	102909.851562
344.005859	102843.007812
342.736328	100593.390625
341.466797	95663.937500
340.197266	90856.476562
338.927734	87440.882812
337.658203	83762.804688
336.387695	81782.664062
335.117188	80366.054688
333.846680	79754.656250
332.575195	78915.304688
331.304688	78351.601562
330.033203	78024.062500
328.761719	77443.039062
327.489258	77218.000000
326.216797	77313.359375
324.944336	76424.328125
323.671875	76912.679688
322.399414	76385.429688
321.125977	76378.750000
319.852539	76423.117188
318.579102	76459.617188
317.305664	76034.890625
316.031250	76383.421875
314.756836	76294.335938
313.482422	76219.015625
312.207031	76192.742188
310.932617	76533.117188
309.657227	76106.882812
308.381836	76149.234375
307.105469	75897.632812
305.830078	75761.710938
304.553711	76048.937500
303.277344	76106.921875
302.000000	76037.601562
300.722656	76426.406250
299.446289	76650.640625
298.167969	76839.562500
296.890625	77108.625000
295.612305	78302.867188
294.333984	78976.406250
293.055664	79855.000000
291.777344	81094.945312
290.498047	81366.835938
289.218750	81486.179688
287.939453	81943.507812
286.660156	82291.257812
285.379883	82078.296875
284.099609	82121.242188
282.819336	81777.570312
281.539062	81311.039062
280.257812	80532.406250
278.976562	79947.257812
277.695312	79231.609375
276.413086	79468.125000
275.131836	79137.031250
273.849609	79299.375000
272.567383	80118.640625
271.284180	81200.710938
270.001953	81953.031250
268.718750	83854.609375
267.435547	85576.242188
266.151367	88960.492188
264.868164	92662.804688
263.583984	98608.476562
262.298828	106874.078125
261.014648	118326.265625
259.729492	134469.250000
258.444336	155761.421875
257.159180	176596.140625
255.874023	193002.671875
254.587891	197295.781250
253.301758	186061.078125
252.015625	165577.406250
250.729492	145503.765625
249.442383	127023.132812
248.155273	114223.421875
246.868164	105328.281250
245.581055	97351.070312
244.292969	92448.085938
243.004883	88474.750000
241.716797	85545.023438
240.427734	82657.156250
239.139648	81105.007812
237.850586	79334.281250
236.560547	77829.890625
235.271484	76892.171875
233.981445	75675.695312
232.691406	74835.640625
231.401367	74013.351562
230.111328	73578.812500
228.820312	72799.679688
227.529297	72539.820312
226.238281	71654.687500
224.946289	71559.687500
223.655273	70882.156250
222.363281	70797.007812
221.070312	70468.117188
219.778320	69584.203125
218.485352	69642.453125
217.192383	69114.804688
215.899414	69422.492188
214.605469	69405.343750
213.312500	68707.976562
212.018555	68435.929688
210.723633	68347.500000
209.429688	67986.781250
208.134766	68184.242188
206.839844	67564.984375
205.544922	67638.914062
204.249023	67245.781250
202.954102	67362.187500
201.658203	66976.968750
200.361328	67376.898438
199.065430	66386.312500
197.768555	66805.468750
196.471680	66293.421875
195.174805	66203.632812
193.876953	66302.710938
192.579102	66085.796875
191.281250	66053.875000
189.983398	66016.187500
188.684570	66338.562500
187.385742	65642.460938
186.086914	65604.859375
184.788086	65873.242188
183.488281	65268.042969
182.188477	65540.218750
180.888672	65264.179688
179.588867	65711.234375
178.288086	65312.218750
176.988281	65812.898438
175.686523	65354.437500
174.385742	65541.734375
173.083984	65214.121094
171.782227	65919.929688
170.480469	65797.835938
169.178711	65675.781250
167.875977	64887.695312
166.573242	65339.687500
165.270508	65545.898438
163.967773	65381.765625
162.664062	65033.562500
161.360352	64493.722656
160.056641	64234.015625
158.751953	64760.351562
157.448242	63983.207031
156.143555	64001.585938
154.838867	64721.156250
153.533203	64262.429688
152.227539	64397.558594
150.921875	64421.574219
149.616211	63907.640625
148.310547	64002.554688
147.003906	63885.015625
145.697266	63490.093750
144.390625	63749.535156
143.083008	63175.003906
141.775391	63310.109375
140.467773	63372.511719
139.160156	63157.726562
137.851562	62597.113281
136.542969	62864.050781
135.234375	62322.812500
133.925781	62230.617188
132.616211	61769.902344
131.307617	61570.929688
129.998047	60957.804688
128.687500	60552.937500
127.377930	59844.828125
126.067383	59692.152344
124.756836	58828.066406
123.445312	58770.988281
122.133789	58353.570312
120.823242	56249.230469
119.510742	54345.824219
