#Wave		#Intensity
1999.091797	8597.348633
1998.124023	8571.515625
1997.156250	8624.262695
1996.187500	8664.078125
1995.219727	8752.937500
1994.250977	8542.307617
1993.282227	8775.697266
1992.313477	8585.781250
1991.344727	8617.827148
1990.375977	8711.774414
1989.406250	8761.841797
1988.437500	8636.530273
1987.467773	8781.992188
1986.498047	8860.376953
1985.528320	8722.224609
1984.557617	8689.779297
1983.587891	8636.732422
1982.617188	8689.324219
1981.646484	8826.896484
1980.675781	8753.250000
1979.705078	8679.628906
1978.733398	8616.331055
1977.762695	8648.288086
1976.791016	8636.485352
1975.819336	8707.022461
1974.847656	8790.397461
1973.875000	8716.844727
1972.903320	8897.911133
1971.930664	8857.791016
1970.958984	8622.306641
1969.986328	8715.902344
1969.012695	8639.855469
1968.040039	8761.679688
1967.066406	8675.374023
1966.093750	8632.763672
1965.120117	8728.843750
1964.146484	8616.912109
1963.172852	8769.437500
1962.198242	8731.972656
1961.224609	8815.134766
1960.250000	8839.253906
1959.275391	8486.254883
1958.300781	8682.271484
1957.326172	8673.062500
1956.350586	8789.493164
1955.375977	8752.067383
1954.400391	8801.801758
1953.424805	8587.561523
1952.449219	8555.314453
1951.473633	8681.909180
1950.497070	8849.441406
1949.520508	8760.825195
1948.544922	8702.964844
1947.568359	8529.923828
1946.590820	8745.996094
1945.614258	8869.863281
1944.637695	8602.212891
1943.660156	8595.593750
1942.682617	8583.860352
1941.705078	8687.209961
1940.727539	8826.319336
1939.749023	8699.511719
1938.771484	8746.554688
1937.792969	8614.694336
1936.814453	8493.098633
1935.835938	8535.042969
1934.857422	8686.802734
1933.877930	8915.120117
1932.899414	8811.429688
1931.919922	8761.384766
1930.940430	8803.244141
1929.960938	8753.216797
1928.980469	8721.068359
1928.000977	8630.255859
1927.020508	8804.739258
1926.040039	8668.040039
1925.059570	8771.062500
1924.079102	8631.867188
1923.098633	8722.115234
1922.117188	8870.944336
1921.135742	8650.268555
1920.155273	8821.985352
1919.172852	8690.541992
1918.191406	8658.461914
1917.209961	8682.408203
1916.227539	8663.069336
1915.245117	8707.368164
1914.262695	8797.457031
1913.280273	8699.231445
1912.297852	8504.370117
1911.314453	8670.750977
1910.332031	8730.266602
1909.348633	8581.267578
1908.365234	8633.150391
1907.381836	8758.724609
1906.397461	8632.668945
1905.414062	8727.708984
1904.429688	8525.491211
1903.445312	8671.313477
1902.460938	8453.939453
1901.476562	8840.931641
1900.491211	8702.298828
1899.506836	8632.245117
1898.521484	8623.120117
1897.536133	8771.307617
1896.550781	8635.320312
1895.565430	8735.261719
1894.579102	8774.306641
1893.592773	8755.020508
1892.607422	8652.084961
1891.621094	8483.286133
1890.633789	8732.680664
1889.647461	8655.138672
1888.660156	8732.153320
1887.673828	8568.522461
1886.686523	8777.208008
1885.699219	8600.966797
1884.710938	8609.584961
1883.723633	8721.972656
1882.735352	8641.995117
1881.748047	8564.575195
1880.759766	8694.619141
1879.770508	8647.567383
1878.782227	8549.956055
1877.793945	8583.854492
1876.804688	8455.952148
1875.815430	8626.338867
1874.826172	8549.014648
1873.836914	8608.154297
1872.846680	8692.534180
1871.857422	8602.609375
1870.867188	8692.009766
1869.876953	8773.804688
1868.886719	8729.351562
1867.896484	8689.960938
1866.905273	8595.066406
1865.915039	8649.065430
1864.923828	8715.659180
1863.932617	8593.065430
1862.941406	8616.774414
1861.949219	8595.091797
1860.958008	8611.229492
1859.965820	8400.524414
1858.973633	8658.606445
1857.981445	8762.907227
1856.989258	8751.291992
1855.997070	8608.711914
1855.003906	8587.055664
1854.010742	8766.826172
1853.017578	8679.698242
1852.024414	8559.881836
1851.031250	8721.946289
1850.037109	8584.551758
1849.043945	8512.609375
1848.049805	8591.597656
1847.055664	8602.662109
1846.060547	8664.006836
1845.066406	8587.071289
1844.072266	8575.509766
1843.077148	8672.006836
1842.082031	8650.383789
1841.086914	8473.023438
1840.090820	8531.812500
1839.095703	8515.246094
1838.099609	8558.942383
1837.104492	8735.666992
1836.108398	8676.406250
1835.111328	8544.394531
1834.115234	8517.803711
1833.119141	8644.239258
1832.122070	8727.993164
1831.125000	8651.231445
1830.127930	8674.782227
1829.130859	8633.149414
1828.132812	8594.038086
1827.135742	8635.126953
1826.137695	8656.157227
1825.139648	8489.307617
1824.141602	8693.185547
1823.142578	8573.965820
1822.144531	8640.055664
1821.145508	8490.847656
1820.146484	8624.503906
1819.147461	8502.875977
1818.148438	8446.338867
1817.148438	8770.040039
1816.149414	8553.412109
1815.149414	8389.371094
1814.149414	8467.898438
1813.149414	8603.891602
1812.149414	8584.882812
1811.148438	8645.842773
1810.148438	8641.823242
1809.147461	8582.850586
1808.146484	8543.877930
1807.144531	8602.302734
1806.143555	8478.456055
1805.142578	8554.344727
1804.140625	8595.266602
1803.138672	8633.677734
1802.136719	8629.663086
1801.133789	8523.378906
1800.131836	8649.071289
1799.128906	8540.327148
1798.125977	8606.136719
1797.123047	8676.908203
1796.120117	8525.847656
1795.117188	8387.298828
1794.113281	8530.319336
1793.110352	8444.126953
1792.106445	8552.219727
1791.101562	8386.372070
1790.097656	8516.842773
1789.093750	8572.592773
1788.088867	8469.045898
1787.083984	8497.413086
1786.079102	8570.550781
1785.074219	8494.418945
1784.069336	8455.618164
1783.063477	8556.075195
1782.057617	8437.722656
1781.051758	8389.008789
1780.045898	8643.504883
1779.040039	8391.021484
1778.034180	8322.465820
1777.027344	8581.806641
1776.020508	8550.493164
1775.013672	8506.774414
1774.006836	8485.414062
1773.000000	8496.329102
1771.992188	8318.630859
1770.984375	8423.858398
1769.976562	8536.491211
1768.968750	8448.172852
1767.960938	8563.240234
1766.953125	8358.410156
1765.944336	8624.675781
1764.935547	8506.659180
1763.926758	8505.159180
1762.917969	8359.949219
1761.908203	8464.999023
1760.899414	8344.615234
1759.889648	8437.248047
1758.879883	8440.711914
1757.870117	8493.685547
1756.860352	8361.004883
1755.849609	8310.035156
1754.839844	8687.130859
1753.829102	8428.320312
1752.818359	8570.289062
1751.807617	8467.385742
1750.795898	8616.714844
1749.785156	8476.757812
1748.773438	8388.753906
1747.761719	8320.550781
1746.750000	8435.208008
1745.738281	8327.494141
1744.725586	8454.458984
1743.712891	8536.927734
1742.701172	8493.447266
1741.688477	8366.049805
1740.674805	8176.992676
1739.662109	8326.079102
1738.648438	8356.683594
1737.635742	8300.937500
1736.622070	8472.120117
1735.608398	8362.120117
1734.593750	8355.711914
1733.580078	8499.677734
1732.565430	8291.143555
1731.550781	8284.750977
1730.536133	8534.593750
1729.521484	8308.919922
1728.506836	8470.004883
1727.491211	8544.845703
1726.475586	8415.308594
1725.459961	8450.746094
1724.444336	8380.339844
1723.428711	8332.104492
1722.412109	8340.472656
1721.396484	8432.473633
1720.379883	8298.172852
1719.363281	8380.312500
1718.345703	8204.272461
1717.329102	8256.900391
1716.311523	8449.599609
1715.293945	8462.849609
1714.276367	8208.298828
1713.258789	8359.144531
1712.241211	8296.266602
1711.222656	8248.144531
1710.205078	8207.404297
1709.186523	8259.955078
1708.167969	8368.934570
1707.148438	8288.932617
1706.129883	8285.012695
1705.110352	8531.292969
1704.090820	8434.136719
1703.071289	8295.329102
1702.051758	8193.344727
1701.032227	8302.198242
1700.011719	8489.437500
1698.991211	8385.021484
1697.971680	8324.740234
1696.950195	8276.727539
1695.929688	8346.284180
1694.909180	8408.470703
1693.887695	8193.992188
1692.866211	8388.359375
1691.844727	8262.062500
1690.823242	8297.302734
1689.800781	8425.494141
1688.779297	8401.989258
1687.756836	8356.481445
1686.734375	8332.995117
1685.711914	8143.278320
1684.688477	8320.266602
1683.666016	8355.451172
1682.642578	8331.980469
1681.619141	8372.035156
1680.595703	8321.701172
1679.572266	8093.112305
1678.547852	8304.103516
1677.524414	8185.453125
1676.500000	8325.569336
1675.475586	8404.625977
1674.451172	8310.419922
1673.425781	8145.500488
1672.401367	8300.157227
1671.375977	8271.861328
1670.350586	8299.654297
1669.325195	8459.076172
1668.299805	8206.530273
1667.273438	8329.358398
1666.247070	8225.549805
1665.220703	8248.452148
1664.194336	8354.157227
1663.167969	8140.814941
1662.141602	8343.890625
1661.114258	8366.753906
1660.086914	8248.444336
1659.059570	8268.882812
1658.032227	8328.242188
1657.004883	8025.123047
1655.976562	8203.679688
1654.948242	8187.634277
1653.919922	8183.750977
1652.891602	8182.299316
1651.863281	8200.291016
1650.833984	8361.646484
1649.805664	8080.762207
1648.776367	8161.919434
1647.747070	8136.184082
1646.717773	8122.599121
1645.687500	8121.157715
1644.658203	8076.022949
1643.627930	8009.061035
1642.597656	7903.297363
1641.567383	8154.211914
1640.536133	8201.278320
1639.505859	7954.871094
1638.474609	8106.223145
1637.443359	8124.179688
1636.412109	8023.354492
1635.380859	8114.024414
1634.348633	8073.813965
1633.316406	8086.916504
1632.285156	8027.346191
1631.252930	7958.109863
1630.219727	8036.602539
1629.187500	8144.118164
1628.154297	8111.205078
1627.121094	8148.485840
1626.087891	8115.582520
1625.054688	8092.367676
1624.021484	7873.236816
1622.987305	8096.748047
1621.954102	8211.371094
1620.919922	8028.597656
1619.885742	8032.005371
1618.850586	8100.661133
1617.816406	8113.719238
1616.781250	8022.892578
1615.746094	8035.958984
1614.710938	7998.306152
1613.675781	7996.884766
1612.639648	8104.097168
1611.604492	8117.138672
1610.568359	7963.662109
1609.532227	7993.612305
1608.496094	7982.541992
1607.458984	8058.304688
1606.422852	8179.858887
1605.385742	8067.494629
1604.348633	8063.649414
1603.311523	7910.370605
1602.274414	7908.963867
1601.236328	7972.610352
1600.198242	7795.339355
1599.160156	8008.310547
1598.122070	7975.580566
1597.083984	7846.556152
1596.045898	7946.263672
1595.006836	7896.713867
1593.967773	7823.117676
1592.928711	7809.695801
1591.889648	8007.963867
1590.849609	7881.474121
1589.810547	7969.043945
1588.770508	8037.348633
1587.730469	7884.478516
1586.690430	8075.345215
1585.650391	7948.954102
1584.609375	8022.017578
1583.568359	7950.928711
1582.527344	7901.479492
1581.486328	8022.536133
1580.445312	7932.277344
1579.403320	8041.282715
1578.362305	7967.852051
1577.320312	8084.010254
1576.278320	7849.857422
1575.236328	7994.778809
1574.193359	8046.116211
1573.150391	7953.565918
1572.108398	7932.969727
1571.065430	8046.610840
1570.021484	7978.074219
1568.978516	7873.620117
1567.934570	7862.634766
1566.891602	7863.628906
1565.847656	7890.965820
1564.803711	8006.885254
1563.758789	8003.064453
1562.714844	8013.605957
1561.669922	7926.025391
1560.625000	7941.361328
1559.580078	7829.901367
1558.535156	7740.007324
1557.489258	7906.026855
1556.443359	7837.669922
1555.398438	7884.083496
1554.351562	7904.189453
1553.305664	7976.860840
1552.259766	7901.370605
1551.212891	7735.130371
1550.166016	7893.775879
1549.119141	7870.875977
1548.072266	7900.510742
1547.025391	7817.938477
1545.977539	7854.731445
1544.929688	7796.059082
1543.881836	7928.277344
1542.833984	7657.306641
1541.786133	7810.967285
1540.737305	8002.726562
1539.688477	7901.163086
1538.639648	7894.985840
1537.590820	7910.260254
1536.541992	7906.465820
1535.493164	7764.488770
1534.443359	7701.169434
1533.393555	7964.155273
1532.343750	7779.381348
1531.293945	7761.327148
1530.243164	7867.057129
1529.192383	7827.574219
1528.142578	7871.387207
1527.091797	7848.569824
1526.040039	7704.449707
1524.989258	7876.684082
1523.937500	7944.233887
1522.885742	7774.021484
1521.833984	7706.078125
1520.782227	7787.880371
1519.730469	7862.524414
1518.677734	7863.495605
1517.625000	7750.454102
1516.572266	7865.436035
1515.519531	7693.073730
1514.466797	7715.438965
1513.413086	7846.979980
1512.360352	7783.875977
1511.306641	7772.994141
1510.252930	7821.423340
1509.198242	7801.050781
1508.144531	7700.056152
1507.089844	7848.053711
1506.035156	7758.938965
1504.980469	7679.336426
1503.925781	7741.946777
1502.870117	7671.852539
1501.815430	7606.520508
1500.759766	7718.847168
1499.704102	7764.828125
1498.647461	7716.087402
1497.591797	7593.979980
1496.535156	7843.500488
1495.479492	7721.413574
1494.421875	7717.666504
1493.365234	7579.086914
1492.308594	7748.017090
1491.250977	7585.834473
1490.193359	7444.987305
1489.135742	7767.498047
1488.078125	7733.020996
1487.020508	7457.532715
1485.961914	7687.728027
1484.904297	7747.767578
1483.845703	7699.146973
1482.786133	7549.008301
1481.727539	7547.657227
1480.668945	7532.144043
1479.609375	7585.076172
1478.549805	7541.245605
1477.490234	7695.600586
1476.429688	7668.276855
1475.370117	7589.079590
1474.309570	7637.236328
1473.249023	7654.729004
1472.188477	7467.150879
1471.127930	7717.973633
1470.066406	7582.287109
1469.005859	7571.506348
1467.944336	7579.571777
1466.882812	7547.599609
1465.820312	7317.858887
1464.758789	7523.708984
1463.696289	7503.531738
1462.633789	7619.850586
1461.571289	7463.198242
1460.508789	7511.261719
1459.446289	7606.347656
1458.382812	7659.070801
1457.319336	7589.514648
1456.255859	7583.453125
1455.192383	7556.240723
1454.128906	7371.595215
1453.064453	7746.188477
1452.000000	7573.319824
1450.935547	7522.641113
1449.871094	7450.846191
1448.806641	7367.338379
1447.741211	7309.680664
1446.675781	7444.492676
1445.610352	7400.920410
1444.544922	7397.247070
1443.479492	7405.303223
1442.413086	7422.737305
1441.346680	7472.992676
1440.280273	7265.343750
1439.213867	7585.167480
1438.147461	7443.192383
1437.080078	7505.122559
1436.013672	7447.550293
1434.946289	7633.599609
1433.878906	7430.827148
1432.810547	7406.079102
1431.743164	7407.090820
1430.674805	7508.749512
1429.606445	7331.886230
1428.538086	7403.104004
1427.469727	7282.467285
1426.400391	7386.413086
1425.331055	7357.024902
1424.262695	7444.552246
1423.192383	7237.499023
1422.123047	7334.365234
1421.053711	7431.196289
1419.983398	7242.947266
1418.913086	7365.455566
1417.842773	7476.241211
1416.772461	7299.760742
1415.701172	7473.556152
1414.630859	7530.572266
1413.559570	7347.174316
1412.488281	7271.182617
1411.416016	7377.198242
1410.344727	7200.923340
1409.272461	7442.183105
1408.200195	7212.327148
1407.127930	7343.921387
1406.055664	7405.538574
1404.983398	7397.215820
1403.910156	7181.513184
1402.836914	7149.936035
1401.763672	7300.056152
1400.690430	7373.268555
1399.617188	7316.060059
1398.542969	7242.575195
1397.468750	7364.638184
1396.394531	7449.420898
1395.320312	7482.983887
1394.245117	7390.909668
1393.170898	7236.067383
1392.095703	7199.882812
1391.020508	7486.903809
1389.945312	7150.799805
1388.869141	7177.405273
1387.793945	7234.210938
1386.717773	7281.702148
1385.641602	7266.454102
1384.565430	7137.403320
1383.488281	7340.472656
1382.412109	7192.879883
1381.334961	7335.510254
1380.257812	7227.427246
1379.180664	7265.575684
1378.102539	7178.424316
1377.025391	7093.623535
1375.947266	7106.262207
1374.869141	7153.679688
1373.791016	7337.867188
1372.711914	7165.012695
1371.633789	7138.229492
1370.554688	7224.997559
1369.475586	7195.895508
1368.396484	7129.742188
1367.316406	7100.666992
1366.237305	7090.126465
1365.157227	7155.987793
1364.077148	7217.195801
1362.997070	7248.295898
1361.916016	7330.289062
1360.835938	7169.341797
1359.754883	7103.286133
1358.673828	7078.880371
1357.592773	7063.731934
1356.511719	7187.295410
1355.429688	7149.018555
1354.347656	6928.191406
1353.265625	7255.037598
1352.183594	7154.395508
1351.101562	6991.428223
1350.018555	7066.374023
1348.935547	7155.145996
1347.852539	7204.642090
1346.769531	7152.567383
1345.686523	7213.583496
1344.602539	7099.230469
1343.519531	7067.962891
1342.435547	7085.139648
1341.350586	7150.734375
1340.266602	7071.057129
1339.181641	7127.410156
1338.097656	7096.163574
1337.012695	6995.799805
1335.926758	7006.057617
1334.841797	6919.566406
1333.756836	7026.561035
1332.670898	7043.714355
1331.584961	7113.812500
1330.499023	7103.321777
1329.412109	7003.081543
1328.326172	7114.564941
1327.239258	7051.166504
1326.152344	7072.895508
1325.065430	7159.008301
1323.977539	7088.737793
1322.890625	6947.226562
1321.802734	6934.480469
1320.714844	7027.448730
1319.626953	6934.274902
1318.538086	6852.620605
1317.450195	6963.927246
1316.361328	6942.002441
1315.272461	7140.499512
1314.183594	7026.727539
1313.093750	6912.996094
1312.004883	6998.948242
1310.915039	7064.219727
1309.825195	6959.717773
1308.735352	6839.199219
1307.644531	6906.756348
1306.554688	7015.557129
1305.463867	6867.585449
1304.373047	6955.726562
1303.282227	6867.395996
1302.190430	6955.504883
1301.099609	7011.513184
1300.007812	6952.991699
1298.916016	6809.769531
1297.824219	6783.355957
1296.731445	6834.775879
1295.639648	6810.655273
1294.546875	6846.034180
1293.454102	6828.783203
1292.361328	6887.018066
1291.267578	6869.765137
1290.174805	6831.939941
1289.081055	6832.990723
1287.987305	6907.181641
1286.892578	6844.231445
1285.798828	6813.291504
1284.704102	6725.252441
1283.609375	7089.473145
1282.514648	6843.849609
1281.419922	6792.382324
1280.325195	6982.903809
1279.229492	6710.043945
1278.133789	6731.649414
1277.038086	6750.964844
1275.942383	6868.360352
1274.845703	6842.030273
1273.750000	6735.900391
1272.653320	6828.155273
1271.556641	6836.037598
1270.458984	6734.523438
1269.362305	6844.956543
1268.264648	6836.883301
1267.166992	6874.368164
1266.069336	6795.692871
1264.971680	6653.291016
1263.873047	6777.297363
1262.775391	6632.673340
1261.676758	6733.880371
1260.578125	6698.531250
1259.478516	6813.338867
1258.379883	6775.712891
1257.280273	6801.774902
1256.180664	6614.102539
1255.081055	6558.346191
1253.981445	6702.620605
1252.880859	6705.951172
1251.780273	6691.104492
1250.679688	6767.127441
1249.579102	6690.951660
1248.478516	6644.323730
1247.376953	6677.175781
1246.276367	6662.345703
1245.174805	6506.809082
1244.072266	6630.432617
1242.970703	6583.856445
1241.868164	6682.469238
1240.766602	6595.077637
1239.664062	6575.742188
1238.560547	6810.327148
1237.458008	6503.091797
1236.354492	6608.427246
1235.251953	6675.204590
1234.148438	6395.344727
1233.043945	6577.652832
1231.940430	6503.992188
1230.835938	6654.515137
1229.731445	6648.780762
1228.626953	6606.833984
1227.522461	6732.362305
1226.417969	6667.789062
1225.312500	6546.685547
1224.207031	6611.088379
1223.101562	6548.833008
1221.996094	6699.126953
1220.889648	6659.482910
1219.784180	6572.390625
1218.677734	6629.950195
1217.571289	6743.970703
1216.463867	6548.483398
1215.357422	6513.417969
1214.250000	6507.719727
1213.142578	6626.193359
1212.035156	6647.562988
1210.927734	6531.258301
1209.819336	6410.482422
1208.710938	6447.670898
1207.603516	6372.065430
1206.494141	6580.641113
1205.385742	6426.121094
1204.276367	6546.689941
1203.167969	6484.644043
1202.058594	6447.409668
1200.948242	6696.337402
1199.838867	6670.341309
1198.728516	6599.307617
1197.619141	6553.070312
1196.508789	6533.867676
1195.397461	6494.412109
1194.287109	6666.535156
1193.175781	6564.061523
1192.064453	6477.373535
1190.953125	6597.667480
1189.841797	6542.491211
1188.730469	6664.977539
1187.618164	6492.900391
1186.505859	6709.759277
1185.393555	6591.673828
1184.281250	6482.619141
1183.167969	6506.153320
1182.055664	6410.630371
1180.942383	6353.320312
1179.829102	6354.410156
1178.714844	6422.849121
1177.601562	6457.593750
1176.487305	6442.954590
1175.373047	6435.051758
1174.258789	6406.960938
1173.143555	6468.597656
1172.029297	6451.723633
1170.914062	6419.160156
1169.798828	6505.418945
1168.683594	6501.994141
1167.568359	6516.497070
1166.452148	6289.023438
1165.335938	6514.125977
1164.219727	6371.841797
1163.103516	6424.424316
1161.986328	6631.467773
1160.870117	6350.456055
1159.752930	6492.534180
1158.635742	6386.184082
1157.518555	6610.980469
1156.400391	6480.041992
1155.282227	6342.441406
1154.164062	6466.502441
1153.045898	6451.911621
1151.927734	6426.149902
1150.808594	6353.466797
1149.690430	6374.653320
1148.571289	6326.579102
1147.452148	6390.199707
1146.332031	6447.097656
1145.212891	6354.380859
1144.092773	6344.293945
1142.972656	6300.731445
1141.852539	6319.667480
1140.731445	6494.773926
1139.611328	6194.675781
1138.490234	6280.528809
1137.369141	6145.590332
1136.248047	6414.238770
1135.125977	6321.677246
1134.003906	6340.583008
1132.882812	6205.730957
1131.760742	6229.106445
1130.637695	6263.610352
1129.515625	6155.569824
1128.392578	6236.833496
1127.269531	6249.053711
1126.146484	6325.818359
1125.023438	6231.196777
1123.899414	6103.234375
1122.775391	6228.924316
1121.651367	6330.102051
1120.527344	6086.552734
1119.403320	6216.623047
1118.278320	6124.346191
1117.153320	6094.335449
1116.028320	6226.554688
1114.903320	6129.882324
1113.778320	6084.336426
1112.652344	6152.076172
1111.526367	6135.409180
1110.400391	6271.939453
1109.274414	6155.367676
1108.147461	6214.166504
1107.021484	6281.819336
1105.894531	6203.023926
1104.767578	6150.875000
1103.639648	6023.341797
1102.512695	6164.150391
1101.384766	6045.528320
1100.256836	6106.486816
1099.128906	6191.799805
1098.000000	6212.826172
1096.872070	6202.830566
1095.743164	6288.078613
1094.614258	6162.918945
1093.485352	6126.367676
1092.355469	5999.068848
1091.226562	6079.864258
1090.096680	6114.159668
1088.966797	6066.580566
1087.835938	6098.653320
1086.706055	6179.370117
1085.575195	6237.944824
1084.444336	6227.961426
1083.313477	6025.672852
1082.182617	6159.383789
1081.050781	6105.227051
1079.918945	6177.015625
1078.787109	5981.509766
1077.655273	6106.296387
1076.523438	6122.844238
1075.390625	6009.136230
1074.257812	6100.740723
1073.125000	6181.276855
1071.992188	6100.715820
1070.859375	6026.802246
1069.725586	6045.550293
1068.591797	6123.832031
1067.458008	6124.916504
1066.324219	6262.672852
1065.189453	6071.984375
1064.054688	5910.011719
1062.919922	6171.109375
1061.785156	6022.394043
1060.650391	6182.065430
1059.514648	6147.904785
1058.378906	6142.376465
1057.243164	6161.062988
1056.107422	6120.321777
1054.971680	6194.013672
1053.834961	6113.681641
1052.698242	5978.389648
1051.561523	6118.041016
1050.424805	6083.939453
1049.287109	6166.362793
1048.150391	5960.825195
1047.012695	5988.301758
1045.874023	5980.613770
1044.736328	6014.666504
1043.597656	6017.957520
1042.459961	5918.038574
1041.321289	6083.814941
1040.181641	5966.358887
1039.042969	6145.233398
1037.903320	5861.039551
1036.764648	5945.528809
1035.624023	6060.696289
1034.484375	6006.951172
1033.344727	6023.392090
1032.204102	6175.750488
1031.063477	5688.013672
1029.922852	6004.740723
1028.782227	5975.155762
1027.640625	5930.246094
1026.499023	5935.729980
1025.357422	5995.959473
1024.215820	5867.869141
1023.074219	5906.197266
1021.931641	6010.171875
1020.789062	6009.069824
1019.646484	5843.875488
1018.503906	5851.554199
1017.360352	5922.655273
1016.216797	5812.233887
1015.074219	5839.589844
1013.929688	5917.210938
1012.786133	5970.762695
1011.641602	5849.487305
1010.498047	5911.770508
1009.353516	5912.870117
1008.208008	5872.475098
1007.063477	5998.040039
1005.917969	5966.375977
1004.772461	5849.598633
1003.626953	5804.879395
1002.481445	6078.731934
1001.335938	5789.660156
1000.189453	5854.029785
999.042969	5874.762207
997.896484	5947.813477
996.749023	6049.175781
995.602539	5799.604004
994.455078	5824.688477
993.307617	5745.186035
992.160156	5853.045410
991.011719	5865.037598
989.864258	5816.056152
988.715820	5854.175293
987.567383	5840.040039
986.417969	5860.729980
985.269531	5883.587891
984.120117	6004.334473
982.970703	5983.655273
981.821289	5839.026855
980.670898	5907.531250
979.521484	5908.619629
978.371094	6190.086914
977.220703	5956.428711
976.070312	5855.390625
974.918945	5854.314453
973.768555	5911.879395
972.617188	6084.511719
971.464844	5818.520020
970.313477	5932.497070
969.162109	6052.942871
968.009766	6010.602051
966.857422	5846.784668
965.705078	5839.202148
964.551758	5762.224121
963.398438	5832.718262
962.246094	5918.361328
961.092773	5815.400391
959.938477	5864.173828
958.785156	5785.093750
957.630859	5929.171875
956.476562	5767.804199
955.322266	5740.756836
954.166992	5728.875000
953.012695	5872.856445
951.857422	5798.188965
950.702148	5667.287109
949.546875	5772.256348
948.390625	5823.108398
947.235352	5826.362305
946.079102	5734.472168
944.921875	5566.948730
943.765625	5708.584473
942.609375	5722.661133
941.452148	5900.947754
940.294922	5625.499512
939.137695	5693.581543
937.979492	5651.501465
936.821289	5685.006836
935.664062	5625.673828
934.504883	5676.437988
933.346680	5632.233398
932.188477	5745.545898
931.029297	5804.887695
929.870117	5793.034180
928.710938	5710.025391
927.550781	5717.597168
926.391602	5742.410156
925.231445	5840.489746
924.071289	5742.448730
922.910156	5635.826660
921.750000	5613.248047
920.588867	5627.288086
919.427734	5815.730469
918.266602	5575.699707
917.105469	5542.386230
915.943359	5636.051758
914.781250	5615.648438
913.619141	5616.763672
912.457031	5463.021484
911.294922	5582.436523
910.131836	5656.657227
908.968750	5520.188477
907.805664	5587.944824
906.642578	5625.592773
905.478516	5607.367676
904.314453	5612.777344
903.150391	5536.575195
901.986328	5522.669922
900.821289	5637.580078
899.657227	5535.657227
898.492188	5427.333496
897.327148	5628.022461
896.161133	5491.833008
894.996094	5535.861328
893.830078	5607.750977
892.664062	5630.300293
891.498047	5526.365234
890.331055	5679.660156
889.165039	5547.896484
887.998047	5598.291504
886.831055	5562.984375
885.663086	5591.940918
884.496094	5689.407227
883.328125	5551.339355
882.160156	5548.173340
880.992188	5534.308105
879.824219	5563.241699
878.655273	5480.919922
877.486328	5499.157715
876.317383	5446.816895
875.148438	5531.335938
873.978516	5446.942383
872.808594	5484.407715
871.638672	5481.257324
870.468750	5550.750488
869.298828	5560.405273
868.127930	5473.946777
866.957031	5402.468262
865.786133	5442.033691
864.615234	5449.565918
863.443359	5516.852051
862.272461	5413.410645
861.100586	5455.077637
859.927734	5411.408691
858.755859	5538.364258
857.583008	5456.315918
856.411133	5602.401855
855.237305	5407.406738
854.064453	5466.075195
852.891602	5445.888184
851.717773	5423.578125
850.543945	5490.729980
849.370117	5344.911621
848.195312	5384.374512
847.021484	5496.197266
845.846680	5318.534180
844.671875	5379.257812
843.496094	5403.791992
842.321289	5441.079590
841.145508	5461.339355
839.969727	5470.959961
838.793945	5491.206055
837.618164	5494.440430
836.441406	5363.791016
835.264648	5311.804688
834.087891	5421.286133
832.911133	5551.966309
831.733398	5410.784180
830.555664	5507.446777
829.377930	5455.480469
828.200195	5465.082031
827.022461	5400.410645
825.843750	5448.206543
824.665039	5409.015625
823.486328	5461.033203
822.307617	5470.623535
821.127930	5439.929688
819.949219	5421.964844
818.769531	5408.244629
817.588867	5455.975586
816.409180	5346.923828
815.228516	5487.841797
814.047852	5414.824219
812.867188	5445.579590
811.686523	5321.791992
810.504883	5316.572266
809.324219	5423.506348
808.142578	5435.194824
806.959961	5438.417480
805.778320	5314.744629
804.595703	5404.683105
803.413086	5350.827637
802.230469	5400.564453
801.047852	5492.549316
799.864258	5434.480957
798.680664	5241.230957
797.497070	5362.763672
796.313477	5412.451172
795.129883	5367.107910
793.945312	5222.565430
792.760742	5422.102051
791.576172	5267.051270
790.390625	5422.199707
789.206055	5412.755371
788.020508	5318.953613
786.834961	5414.963379
785.649414	5394.983887
784.462891	5410.845215
783.276367	5382.443359
782.089844	5453.084473
780.903320	5441.538574
779.716797	5421.571289
778.529297	5241.563965
777.341797	5421.663086
776.154297	5283.824219
774.966797	5312.308594
773.778320	5275.548340
772.590820	5379.765137
771.402344	5399.801270
770.212891	5413.520020
769.024414	5349.431152
767.834961	5207.578125
766.645508	5172.978516
765.456055	5317.027344
764.266602	5355.961914
763.076172	5258.329102
761.886719	5171.234375
760.696289	5325.675293
759.504883	5316.286621
758.314453	5115.869629
757.123047	5257.641113
755.931641	5363.685059
754.740234	5228.410645
753.548828	5256.806152
752.356445	5234.855469
751.164062	5326.145996
749.971680	5270.645996
748.779297	5194.205078
747.585938	5235.153320
746.392578	5271.895996
745.199219	5220.636230
744.005859	5257.366699
742.812500	5308.743164
741.618164	5280.536133
740.423828	5147.669434
739.229492	5180.199219
738.035156	5179.235352
736.839844	5130.149902
735.644531	5334.195801
734.449219	5318.562500
733.253906	5187.926270
732.058594	5189.051270
730.862305	5234.071289
729.666016	5212.197754
728.469727	5102.573242
727.272461	5164.296387
726.076172	5140.358887
724.878906	5174.903320
723.681641	5173.939453
722.484375	5124.961426
721.286133	5149.053223
720.087891	5185.655762
718.889648	5147.134766
717.691406	5204.583984
716.493164	5216.127930
715.293945	5269.372070
714.094727	5222.523438
712.895508	5194.452148
711.695312	5158.055176
710.496094	5115.420410
709.295898	5237.380859
708.095703	5117.679199
706.895508	5195.860352
705.694336	5274.012695
704.493164	5135.634766
703.291992	5172.141602
702.090820	5123.314941
700.889648	5224.307617
699.687500	5148.446777
698.485352	5010.220215
697.283203	5119.494141
696.081055	5024.983398
694.877930	5080.169434
693.674805	5089.612793
692.471680	5248.657715
691.268555	5193.664551
690.065430	5053.531250
688.861328	5096.198730
687.657227	5269.657227
686.453125	5200.168457
685.248047	5068.439941
684.043945	5065.418945
682.838867	5130.865234
681.633789	5098.791992
680.427734	5052.212891
679.222656	5136.286621
678.016602	5093.863770
676.810547	4989.271973
675.604492	5081.599609
674.397461	5095.154785
673.190430	4986.477051
671.983398	5031.113770
670.776367	5096.442383
669.569336	5105.842773
668.361328	5061.416992
667.153320	5079.098633
665.945312	4978.821777
664.737305	5143.407715
663.528320	4997.646973
662.319336	5002.917969
661.110352	5084.694336
659.901367	4998.980957
658.692383	4967.041016
657.482422	4976.445801
656.272461	4985.847168
655.062500	5020.034668
653.851562	5043.881836
652.641602	4947.944824
651.430664	5013.090332
650.219727	4993.574219
649.007812	4988.512695
647.796875	4946.308594
646.584961	5017.594238
645.373047	4861.948242
644.161133	5021.904785
642.948242	4981.787598
641.735352	5110.736816
640.522461	4918.086914
639.309570	4964.565918
638.096680	4955.395508
636.882812	5047.171387
635.668945	4974.138184
634.455078	5034.986328
633.241211	4996.983398
632.026367	4950.760742
630.811523	4960.124512
629.596680	4971.542969
628.381836	4985.013672
627.166016	4918.256836
625.950195	5001.656738
624.734375	4992.495605
623.518555	5051.179688
622.302734	4931.018066
621.085938	4911.599121
619.869141	4894.241699
618.652344	4944.682617
617.435547	4865.708008
616.217773	4963.365723
615.000000	4941.904297
613.782227	4834.235352
612.564453	4925.686523
611.345703	4900.139648
610.126953	4761.764160
608.908203	4814.203613
607.689453	4915.843262
606.469727	4939.527344
605.250977	4864.799316
604.031250	4968.420898
602.810547	4817.891113
601.590820	5021.878906
600.370117	4924.656738
599.149414	4942.166992
597.928711	4906.428223
596.708008	4754.002441
595.486328	4765.393066
594.264648	4776.778809
593.042969	4853.639648
591.821289	4766.804199
590.598633	4839.546387
589.376953	4789.556641
588.154297	4866.356445
586.930664	4892.019531
585.708008	4846.135254
584.484375	4900.401855
583.260742	4864.748535
582.037109	4812.766602
580.813477	4768.973145
579.588867	4729.280273
578.364258	4944.804199
577.139648	4839.772949
575.914062	4879.681641
574.689453	4848.158691
573.463867	4761.564453
572.238281	4783.107422
571.012695	4847.467773
569.786133	4709.948242
568.559570	4825.261719
567.333008	4671.492676
566.106445	4784.731445
564.878906	4879.590820
563.652344	4815.526367
562.424805	4804.438965
561.197266	4823.898926
559.968750	4837.243652
558.740234	4850.583496
557.512695	4902.584961
556.283203	4734.815918
555.054688	4776.647461
553.825195	4826.598633
552.595703	4752.482910
551.366211	4686.526855
550.136719	4817.779297
548.906250	4782.322266
547.676758	4746.878418
546.446289	4762.239258
545.214844	4680.092285
543.984375	4748.263184
542.752930	4690.515625
541.521484	4750.537598
540.290039	4684.691895
539.057617	4695.987305
537.826172	4689.017090
536.593750	4627.276367
535.361328	4802.862305
534.127930	4631.619141
532.894531	4596.280762
531.662109	4751.501953
530.427734	4689.806641
529.194336	4846.977539
527.959961	4706.275391
526.726562	4670.955078
525.492188	4607.294922
524.256836	4661.097656
523.022461	4581.267578
521.787109	4539.924316
520.551758	4678.702148
519.316406	4544.285156
518.080078	4650.643066
516.843750	4589.091797
515.607422	4632.714355
514.371094	4599.494141
513.134766	4590.541992
511.897461	4617.971680
510.660156	4623.163574
509.422852	4575.827148
508.184570	4556.786621
506.947266	4592.278809
505.708984	4633.814453
504.470703	4590.548340
503.231445	4611.884766
501.993164	4705.859375
500.753906	4620.234863
499.514648	4595.157715
498.274414	4594.291504
497.035156	4559.145996
495.794922	4588.527344
494.554688	4650.148438
493.314453	4566.644531
492.073242	4529.515137
490.832031	4403.760254
489.590820	4654.698730
488.349609	4631.669434
487.108398	4675.090332
485.866211	4519.207031
484.624023	4580.746094
483.381836	4652.323242
482.138672	4524.697754
480.896484	4509.763672
479.653320	4522.990234
478.410156	4397.471680
477.166016	4567.521973
475.921875	4492.291016
474.678711	4599.961426
473.433594	4643.295898
472.189453	4560.057129
470.944336	4523.043945
469.700195	4463.956055
468.455078	4543.421387
467.208984	4462.270996
465.963867	4557.761230
464.717773	4580.979492
463.471680	4533.972168
462.224609	4571.226562
460.978516	4506.189453
459.731445	4463.232422
458.484375	4576.655762
457.237305	4565.769531
455.989258	4480.742676
454.742188	4463.868164
453.494141	4589.223633
452.245117	4450.165039
450.997070	4437.309570
449.748047	4498.533691
448.499023	4499.685059
447.250000	4488.828613
446.000977	4493.982910
444.750977	4437.119141
443.500977	4454.281738
442.250977	4477.436523
441.000000	4520.576172
439.750000	4457.752930
438.499023	4488.887695
437.248047	4416.102539
435.996094	4535.138672
434.745117	4492.333984
433.493164	4403.611816
432.241211	4470.667480
430.989258	4356.030273
429.736328	4455.004883
428.483398	4440.192871
427.230469	4443.343262
425.977539	4414.574707
424.723633	4274.127441
423.469727	4379.004883
422.215820	4368.207520
420.961914	4317.547852
419.708008	4314.737793
418.453125	4276.062012
417.198242	4305.135742
415.942383	4401.919434
414.687500	4399.094727
413.431641	4420.163574
412.175781	4315.811035
410.919922	4197.565430
409.664062	4226.619629
408.407227	4361.108887
407.150391	4366.250488
405.893555	4333.602539
404.635742	4308.920898
403.378906	4377.686523
402.121094	4313.251465
400.862305	4336.281738
399.604492	4192.401855
398.345703	4255.177246
397.086914	4278.204590
395.828125	4319.095703
394.569336	4405.635254
393.309570	4406.785156
392.049805	4288.854980
390.790039	4325.743652
389.530273	4424.119141
388.269531	4355.839844
387.008789	4287.586914
385.748047	4257.032227
384.487305	4270.102051
383.225586	4287.130371
381.963867	4218.940918
380.702148	4184.458984
379.440430	4387.698242
378.177734	4311.606445
376.915039	4316.729004
375.652344	4238.698730
374.389648	4231.956055
373.126953	4300.418945
371.863281	4188.798828
370.599609	4142.503906
369.334961	4305.883301
368.071289	4255.627930
366.806641	4246.911621
365.541992	4259.942871
364.277344	4174.149414
363.011719	4280.062012
361.746094	4164.662109
360.480469	4205.352051
359.214844	4123.583008
357.949219	4336.047852
356.682617	4171.370605
355.416016	4166.630859
354.149414	4280.296387
352.881836	4305.132812
351.614258	4256.971680
350.346680	4163.465820
349.079102	4148.871582
347.811523	4201.314941
346.542969	4167.006836
345.274414	4162.273438
344.005859	4218.624512
342.736328	4097.650879
341.466797	4122.478027
340.197266	4137.448242
338.927734	4055.937012
337.658203	4124.064453
336.387695	4113.439941
335.117188	4144.142090
333.846680	4066.625488
332.575195	4089.456787
331.304688	4055.245850
330.033203	4095.766846
328.761719	4002.590088
327.489258	4117.795410
326.216797	4065.917969
324.944336	4006.200928
323.671875	4144.912109
322.399414	4132.339355
321.125977	4094.243652
319.852539	4052.235596
318.579102	3976.873535
317.305664	4044.805908
316.031250	3989.095215
314.756836	3954.985596
313.482422	4013.075684
312.207031	3975.051758
310.932617	4042.918701
309.657227	3961.776611
308.381836	3988.461426
307.105469	3968.106445
305.830078	4035.922363
304.553711	4084.124268
303.277344	4134.266113
302.000000	3902.426758
300.722656	3952.583496
299.446289	4041.867432
298.167969	4043.054443
296.890625	4159.678711
295.612305	4080.638184
294.333984	4113.109863
293.055664	4294.183594
291.777344	4189.746094
290.498047	4233.905762
289.218750	4195.966797
287.939453	4113.100586
286.660156	4215.856934
285.379883	4201.380859
284.099609	4085.361816
282.819336	4047.485840
281.539062	4027.193115
280.257812	4030.328857
278.976562	3935.895020
277.695312	3944.899414
276.413086	3875.875488
275.131836	3867.335449
273.849609	3845.149170
272.567383	3723.546631
271.284180	3822.241943
270.001953	3805.922852
268.718750	3840.267578
267.435547	3783.042480
266.151367	3869.964600
264.868164	3845.858887
263.583984	3763.355225
262.298828	3867.749512
261.014648	3796.949707
259.729492	3745.634521
258.444336	3853.862793
257.159180	3763.655029
255.874023	3805.719482
254.587891	3762.218262
253.301758	3714.845703
252.015625	3737.458984
250.729492	3762.006592
249.442383	3792.373291
248.155273	3581.864990
246.868164	3732.662598
245.581055	3675.640381
244.292969	3672.996826
243.004883	3718.878174
241.716797	3683.237061
240.427734	3707.756104
239.139648	3662.431152
237.850586	3652.033936
236.560547	3560.198242
235.271484	3668.086914
233.981445	3698.399658
232.691406	3635.677002
231.401367	3623.356201
230.111328	3721.463379
228.820312	3656.834961
227.529297	3559.310059
226.238281	3535.395752
224.946289	3526.976562
223.655273	3576.622559
222.363281	3612.704346
221.070312	3596.535889
219.778320	3624.862549
218.485352	3662.847412
217.192383	3482.326416
215.899414	3586.052246
214.605469	3598.895752
213.312500	3474.530762
212.018555	3512.507324
210.723633	3540.810791
209.429688	3605.798584
208.134766	3585.798828
206.839844	3631.446777
205.544922	3522.658936
204.249023	3525.844482
202.954102	3440.271973
201.658203	3439.613525
200.361328	3381.092529
199.065430	3390.086914
197.768555	3541.750488
196.471680	3674.079102
195.174805	3409.339600
193.876953	3462.639893
192.579102	3502.433838
191.281250	3573.030762
189.983398	3651.303711
188.684570	3675.634766
187.385742	3699.956299
186.086914	3577.992188
184.788086	3434.906982
183.488281	3426.552979
182.188477	3466.291504
180.888672	3540.632324
179.588867	3449.580078
178.288086	3496.980713
176.988281	3405.971191
175.686523	3491.796387
174.385742	3389.294434
173.083984	3400.170654
171.782227	3495.550293
170.480469	3469.916504
169.178711	3451.971924
167.875977	3380.287354
166.573242	3404.588135
165.270508	3455.742432
163.967773	3362.995117
162.664062	3442.908203
161.360352	3484.436768
160.056641	3428.166016
158.751953	3519.521729
157.448242	3495.847412
156.143555	3531.584717
154.838867	3709.080566
153.533203	3614.510254
152.227539	3835.969482
150.921875	4095.638184
149.616211	4374.351074
148.310547	4695.064453
147.003906	4929.541016
145.697266	5131.401855
144.390625	5428.829590
143.083008	5270.958984
141.775391	4575.828125
140.467773	4219.353516
139.160156	4014.019287
137.851562	3871.828857
136.542969	3804.210449
135.234375	3860.789551
133.925781	3804.658691
132.616211	3744.729980
131.307617	3679.096436
129.998047	3481.775879
128.687500	3372.322266
127.377930	3276.267334
126.067383	3168.802490
124.756836	3109.063965
123.445312	3163.770264
122.133789	3022.068604
120.823242	3084.395508
119.510742	2954.198730
