#Wave		#Intensity
1999.091797	81465.562500
1998.124023	81057.398438
1997.156250	81800.054688
1996.187500	80850.960938
1995.219727	81492.695312
1994.250977	81615.312500
1993.282227	81133.906250
1992.313477	81308.148438
1991.344727	81655.203125
1990.375977	81143.078125
1989.406250	81361.062500
1988.437500	82128.265625
1987.467773	81827.742188
1986.498047	81638.179688
1985.528320	81773.437500
1984.557617	81035.023438
1983.587891	81654.734375
1982.617188	81962.515625
1981.646484	81224.445312
1980.675781	81096.968750
1979.705078	81093.125000
1978.733398	81660.781250
1977.762695	81520.414062
1976.791016	81629.718750
1975.819336	81386.476562
1974.847656	81750.437500
1973.875000	81142.023438
1972.903320	81729.632812
1971.930664	81681.945312
1970.958984	81168.960938
1969.986328	81594.320312
1969.012695	81672.593750
1968.040039	81601.812500
1967.066406	81541.328125
1966.093750	81747.984375
1965.120117	81592.468750
1964.146484	82091.750000
1963.172852	81209.718750
1962.198242	81529.210938
1961.224609	82010.265625
1960.250000	81998.515625
1959.275391	81537.820312
1958.300781	81433.812500
1957.326172	82009.421875
1956.350586	81282.296875
1955.375977	81260.406250
1954.400391	81361.554688
1953.424805	80942.445312
1952.449219	82291.414062
1951.473633	81964.500000
1950.497070	81845.171875
1949.520508	81741.242188
1948.544922	81790.968750
1947.568359	81684.515625
1946.590820	81790.546875
1945.614258	81796.726562
1944.637695	81920.601562
1943.660156	81323.007812
1942.682617	81518.539062
1941.705078	81667.960938
1940.727539	81364.757812
1939.749023	81557.609375
1938.771484	81607.250000
1937.792969	81498.429688
1936.814453	81854.671875
1935.835938	81541.468750
1934.857422	81238.585938
1933.877930	81691.718750
1932.899414	81955.742188
1931.919922	81119.398438
1930.940430	81562.093750
1929.960938	81986.765625
1928.980469	81878.023438
1928.000977	81871.351562
1927.020508	81742.257812
1926.040039	81156.718750
1925.059570	81333.757812
1924.079102	81485.226562
1923.098633	81432.742188
1922.117188	81976.593750
1921.135742	81381.320312
1920.155273	81400.203125
1919.172852	81419.070312
1918.191406	81598.367188
1917.209961	81181.789062
1916.227539	81035.210938
1915.245117	81166.109375
1914.262695	81129.000000
1913.280273	81422.671875
1912.297852	81456.750000
1911.314453	81188.140625
1910.332031	81311.257812
1909.348633	81808.085938
1908.365234	81618.351562
1907.381836	81634.562500
1906.397461	81170.468750
1905.414062	81423.039062
1904.429688	81253.820312
1903.445312	81071.960938
1902.460938	80986.656250
1901.476562	81048.640625
1900.491211	81486.320312
1899.506836	81177.617188
1898.521484	81221.765625
1897.536133	80928.445312
1896.550781	81543.398438
1895.565430	81054.812500
1894.579102	80979.750000
1893.592773	81089.796875
1892.607422	81585.132812
1891.621094	81395.953125
1890.633789	81270.187500
1889.647461	81088.718750
1888.660156	81479.835938
1887.673828	81138.820312
1886.686523	81149.921875
1885.699219	81036.953125
1884.710938	80979.710938
1883.723633	80737.726562
1882.735352	80880.468750
1881.748047	81225.570312
1880.759766	80700.328125
1879.770508	81212.273438
1878.782227	81152.515625
1877.793945	81115.523438
1876.804688	81384.429688
1875.815430	81294.335938
1874.826172	81424.125000
1873.836914	81142.023438
1872.846680	81127.789062
1871.857422	81189.335938
1870.867188	80909.937500
1869.876953	81085.109375
1868.886719	80601.343750
1867.896484	81473.109375
1866.905273	80946.546875
1865.915039	80818.804688
1864.923828	81114.906250
1863.932617	80843.414062
1862.941406	81030.968750
1861.949219	81102.468750
1860.958008	81244.531250
1859.965820	81099.210938
1858.973633	81213.492188
1857.981445	80849.023438
1856.989258	80827.281250
1855.997070	81148.070312
1855.003906	81347.875000
1854.010742	81051.601562
1853.017578	81470.351562
1852.024414	80932.539062
1851.031250	81081.890625
1850.037109	81304.156250
1849.043945	81219.445312
1848.049805	81134.757812
1847.055664	81165.773438
1846.060547	80726.617188
1845.066406	81476.625000
1844.072266	81178.312500
1843.077148	81669.140625
1842.082031	81019.148438
1841.086914	80994.867188
1840.090820	80955.523438
1839.095703	81669.523438
1838.099609	81318.742188
1837.104492	81798.976562
1836.108398	81237.460938
1835.111328	81190.562500
1834.115234	81211.421875
1833.119141	81049.148438
1832.122070	81115.164062
1831.125000	81060.781250
1830.127930	80931.203125
1829.130859	80932.023438
1828.132812	81238.593750
1827.135742	81259.398438
1826.137695	81453.062500
1825.139648	81538.937500
1824.141602	81321.734375
1823.142578	81212.281250
1822.144531	81035.265625
1821.145508	81101.117188
1820.146484	81292.078125
1819.147461	81390.382812
1818.148438	80955.757812
1817.148438	81266.703125
1816.149414	81580.039062
1815.149414	80800.515625
1814.149414	81186.320312
1813.149414	81651.976562
1812.149414	81037.796875
1811.148438	81178.460938
1810.148438	81608.890625
1809.147461	81319.757812
1808.146484	81125.632812
1807.144531	81251.187500
1806.143555	81451.593750
1805.142578	81140.218750
1804.140625	81100.976562
1803.138672	80747.343750
1802.136719	81606.328125
1801.133789	81524.609375
1800.131836	81268.343750
1799.128906	81470.976562
1798.125977	81212.312500
1797.123047	81100.796875
1796.120117	80882.156250
1795.117188	81104.632812
1794.113281	81247.304688
1793.110352	81108.453125
1792.106445	80892.437500
1791.101562	81012.656250
1790.097656	81092.992188
1789.093750	80775.031250
1788.088867	80740.890625
1787.083984	80898.359375
1786.079102	80398.984375
1785.074219	81086.257812
1784.069336	81198.804688
1783.063477	80709.578125
1782.057617	80342.335938
1781.051758	80591.656250
1780.045898	80699.226562
1779.040039	80722.273438
1778.034180	81219.820312
1777.027344	80587.015625
1776.020508	80734.234375
1775.013672	80449.359375
1774.006836	80991.273438
1773.000000	80386.242188
1771.992188	80054.414062
1770.984375	80524.148438
1769.976562	80621.585938
1768.968750	80163.382812
1767.960938	80161.648438
1766.953125	80117.757812
1765.944336	80284.601562
1764.935547	80429.070312
1763.926758	80132.375000
1762.917969	80105.851562
1761.908203	80116.492188
1760.899414	80471.421875
1759.889648	79897.546875
1758.879883	80138.476562
1757.870117	80201.085938
1756.860352	80142.382812
1755.849609	80311.367188
1754.839844	79953.273438
1753.829102	79904.531250
1752.818359	79578.781250
1751.807617	79851.601562
1750.795898	79706.468750
1749.785156	80006.351562
1748.773438	79829.101562
1747.761719	80054.718750
1746.750000	79072.046875
1745.738281	79873.296875
1744.725586	79612.203125
1743.712891	79840.156250
1742.701172	79682.859375
1741.688477	79236.781250
1740.674805	79499.226562
1739.662109	79862.750000
1738.648438	79377.390625
1737.635742	79605.125000
1736.622070	80017.750000
1735.608398	79216.976562
1734.593750	79074.773438
1733.580078	79812.664062
1732.565430	79825.671875
1731.550781	79602.109375
1730.536133	79568.335938
1729.521484	79280.843750
1728.506836	79589.484375
1727.491211	79536.015625
1726.475586	79812.484375
1725.459961	79370.054688
1724.444336	79247.742188
1723.428711	79145.148438
1722.412109	79512.507812
1721.396484	79737.062500
1720.379883	79604.914062
1719.363281	79927.726562
1718.345703	78745.773438
1717.329102	79201.351562
1716.311523	79307.781250
1715.293945	79318.328125
1714.276367	79559.812500
1713.258789	79236.234375
1712.241211	79477.648438
1711.222656	79028.960938
1710.205078	79537.921875
1709.186523	79509.125000
1708.167969	79713.484375
1707.148438	79505.539062
1706.129883	78917.382812
1705.110352	79703.078125
1704.090820	79436.375000
1703.071289	79934.796875
1702.051758	79168.007812
1701.032227	79438.335938
1700.011719	79196.359375
1698.991211	79439.625000
1697.971680	79065.437500
1696.950195	79210.656250
1695.929688	79275.007812
1694.909180	79780.078125
1693.887695	79180.843750
1692.866211	79039.546875
1691.844727	79150.367188
1690.823242	79564.554688
1689.800781	78667.304688
1688.779297	79722.281250
1687.756836	79302.195312
1686.734375	79261.257812
1685.711914	79569.921875
1684.688477	79519.171875
1683.666016	78769.492188
1682.642578	78889.929688
1681.619141	78734.265625
1680.595703	79509.257812
1679.572266	78906.625000
1678.547852	79329.703125
1677.524414	79308.328125
1676.500000	78442.437500
1675.475586	78792.156250
1674.451172	78863.585938
1673.425781	78998.421875
1672.401367	79452.726562
1671.375977	78660.718750
1670.350586	79290.468750
1669.325195	79412.929688
1668.299805	78745.648438
1667.273438	78617.156250
1666.247070	78917.523438
1665.220703	79030.210938
1664.194336	78823.781250
1663.167969	78909.648438
1662.141602	78671.664062
1661.114258	79064.242188
1660.086914	79240.070312
1659.059570	78279.406250
1658.032227	78477.195312
1657.004883	78881.679688
1655.976562	78325.320312
1654.948242	78158.226562
1653.919922	77816.140625
1652.891602	78215.585938
1651.863281	78488.500000
1650.833984	77847.632812
1649.805664	78334.320312
1648.776367	77708.273438
1647.747070	78243.375000
1646.717773	77957.523438
1645.687500	78227.750000
1644.658203	77735.664062
1643.627930	78054.367188
1642.597656	77894.921875
1641.567383	77958.734375
1640.536133	77998.257812
1639.505859	77312.617188
1638.474609	77715.960938
1637.443359	78424.640625
1636.412109	77732.000000
1635.380859	78028.414062
1634.348633	77665.632812
1633.316406	77365.960938
1632.285156	77698.609375
1631.252930	77447.468750
1630.219727	77184.312500
1629.187500	77311.023438
1628.154297	77428.000000
1627.121094	77888.585938
1626.087891	77710.210938
1625.054688	77374.648438
1624.021484	76777.968750
1622.987305	76897.335938
1621.954102	77468.820312
1620.919922	77012.648438
1619.885742	76791.093750
1618.850586	77352.617188
1617.816406	77044.085938
1616.781250	77049.726562
1615.746094	76565.031250
1614.710938	76667.343750
1613.675781	77013.476562
1612.639648	76816.312500
1611.604492	76882.312500
1610.568359	76849.335938
1609.532227	76637.828125
1608.496094	76460.156250
1607.458984	76615.398438
1606.422852	76044.718750
1605.385742	77135.468750
1604.348633	76432.304688
1603.311523	76023.437500
1602.274414	76511.156250
1601.236328	77169.757812
1600.198242	75852.796875
1599.160156	76528.140625
1598.122070	76707.171875
1597.083984	76204.765625
1596.045898	75972.156250
1595.006836	76659.015625
1593.967773	76031.750000
1592.928711	76340.617188
1591.889648	77048.687500
1590.849609	76128.257812
1589.810547	76533.125000
1588.770508	76408.906250
1587.730469	76128.484375
1586.690430	76415.359375
1585.650391	76271.992188
1584.609375	76236.796875
1583.568359	75973.406250
1582.527344	76529.070312
1581.486328	76822.804688
1580.445312	76309.757812
1579.403320	76178.554688
1578.362305	76505.781250
1577.320312	76312.187500
1576.278320	76495.328125
1575.236328	75848.453125
1574.193359	76137.125000
1573.150391	76250.648438
1572.108398	75934.992188
1571.065430	76264.226562
1570.021484	76255.437500
1568.978516	76179.554688
1567.934570	76197.125000
1566.891602	76317.679688
1565.847656	76428.609375
1564.803711	76285.695312
1563.758789	76111.703125
1562.714844	75743.898438
1561.669922	76264.062500
1560.625000	75879.601562
1559.580078	76162.718750
1558.535156	76189.804688
1557.489258	76027.953125
1556.443359	76581.062500
1555.398438	76299.664062
1554.351562	76023.148438
1553.305664	75842.312500
1552.259766	75953.031250
1551.212891	75741.210938
1550.166016	75663.218750
1549.119141	76022.250000
1548.072266	75698.304688
1547.025391	76300.687500
1545.977539	75680.851562
1544.929688	75920.296875
1543.881836	75899.601562
1542.833984	76186.625000
1541.786133	75772.343750
1540.737305	75968.671875
1539.688477	75804.914062
1538.639648	75669.820312
1537.590820	76185.414062
1536.541992	76217.093750
1535.493164	75827.054688
1534.443359	75870.695312
1533.393555	75971.468750
1532.343750	76084.109375
1531.293945	75542.000000
1530.243164	75859.382812
1529.192383	75886.296875
1528.142578	75827.539062
1527.091797	75818.757812
1526.040039	75446.039062
1524.989258	75563.375000
1523.937500	75875.632812
1522.885742	75892.992188
1521.833984	75881.812500
1520.782227	75518.914062
1519.730469	75531.562500
1518.677734	75061.937500
1517.625000	76117.390625
1516.572266	75305.851562
1515.519531	75605.820312
1514.466797	75402.390625
1513.413086	75161.062500
1512.360352	75152.375000
1511.306641	75129.453125
1510.252930	75524.062500
1509.198242	75631.531250
1508.144531	75129.492188
1507.089844	75270.187500
1506.035156	75467.710938
1504.980469	75231.429688
1503.925781	74480.984375
1502.870117	74806.484375
1501.815430	74454.359375
1500.759766	74817.632812
1499.704102	75197.351562
1498.647461	74975.554688
1497.591797	75234.375000
1496.535156	75235.125000
1495.479492	74658.476562
1494.421875	74514.992188
1493.365234	74385.757812
1492.308594	74038.976562
1491.250977	74564.875000
1490.193359	74676.835938
1489.135742	74247.445312
1488.078125	74617.031250
1487.020508	74291.773438
1485.961914	74136.726562
1484.904297	73764.414062
1483.845703	74346.367188
1482.786133	74318.890625
1481.727539	74369.335938
1480.668945	74178.992188
1479.609375	73920.273438
1478.549805	73994.343750
1477.490234	73990.531250
1476.429688	74293.359375
1475.370117	74008.851562
1474.309570	74238.468750
1473.249023	73704.171875
1472.188477	73657.976562
1471.127930	73696.632812
1470.066406	73485.507812
1469.005859	73427.593750
1467.944336	73511.007812
1466.882812	73853.437500
1465.820312	74094.500000
1464.758789	73626.882812
1463.696289	72876.992188
1462.633789	73572.265625
1461.571289	73457.914062
1460.508789	73202.453125
1459.446289	74019.593750
1458.382812	73317.320312
1457.319336	73445.250000
1456.255859	73373.320312
1455.192383	73376.625000
1454.128906	73255.375000
1453.064453	73244.593750
1452.000000	73473.414062
1450.935547	73093.859375
1449.871094	73228.695312
1448.806641	73250.781250
1447.741211	73082.726562
1446.675781	73149.414062
1445.610352	72934.500000
1444.544922	72855.726562
1443.479492	73431.429688
1442.413086	72512.992188
1441.346680	73114.335938
1440.280273	72777.687500
1439.213867	73219.367188
1438.147461	72721.117188
1437.080078	72604.968750
1436.013672	72767.648438
1434.946289	72499.281250
1433.878906	72912.500000
1432.810547	72843.226562
1431.743164	72731.828125
1430.674805	72957.523438
1429.606445	72448.304688
1428.538086	72121.765625
1427.469727	72885.492188
1426.400391	72729.734375
1425.331055	72557.664062
1424.262695	72759.742188
1423.192383	72302.523438
1422.123047	72076.851562
1421.053711	72337.320312
1419.983398	72013.585938
1418.913086	72299.664062
1417.842773	72681.398438
1416.772461	72441.835938
1415.701172	72120.632812
1414.630859	72131.023438
1413.559570	72008.375000
1412.488281	71839.101562
1411.416016	72295.140625
1410.344727	72235.500000
1409.272461	71739.750000
1408.200195	72419.414062
1407.127930	71984.414062
1406.055664	71724.398438
1404.983398	71816.382812
1403.910156	71917.656250
1402.836914	72088.781250
1401.763672	71733.414062
1400.690430	71736.828125
1399.617188	72184.968750
1398.542969	71182.570312
1397.468750	71865.742188
1396.394531	71627.078125
1395.320312	71514.148438
1394.245117	71282.609375
1393.170898	71676.835938
1392.095703	71654.648438
1391.020508	71709.195312
1389.945312	71205.781250
1388.869141	71406.812500
1387.793945	70922.226562
1386.717773	71374.156250
1385.641602	71654.023438
1384.565430	71116.218750
1383.488281	71586.445312
1382.412109	71183.507812
1381.334961	71521.226562
1380.257812	70779.578125
1379.180664	71411.953125
1378.102539	71329.500000
1377.025391	71646.062500
1375.947266	71306.148438
1374.869141	71323.460938
1373.791016	71016.179688
1372.711914	71165.664062
1371.633789	70749.585938
1370.554688	70998.695312
1369.475586	70612.914062
1368.396484	71100.531250
1367.316406	70608.328125
1366.237305	70952.210938
1365.157227	70819.046875
1364.077148	70996.093750
1362.997070	70515.828125
1361.916016	69938.546875
1360.835938	70663.937500
1359.754883	70984.289062
1358.673828	70518.226562
1357.592773	70549.460938
1356.511719	70229.281250
1355.429688	70138.046875
1354.347656	70580.664062
1353.265625	70290.687500
1352.183594	70217.953125
1351.101562	70736.531250
1350.018555	70158.007812
1348.935547	69879.851562
1347.852539	70231.992188
1346.769531	70189.328125
1345.686523	70301.281250
1344.602539	70164.023438
1343.519531	69966.835938
1342.435547	70491.601562
1341.350586	70241.382812
1340.266602	69919.773438
1339.181641	70220.664062
1338.097656	69608.781250
1337.012695	70255.250000
1335.926758	69788.718750
1334.841797	69895.914062
1333.756836	69475.671875
1332.670898	69472.351562
1331.584961	69439.093750
1330.499023	69415.062500
1329.412109	69634.976562
1328.326172	69797.289062
1327.239258	69510.929688
1326.152344	69758.304688
1325.065430	69966.484375
1323.977539	69448.015625
1322.890625	69663.070312
1321.802734	69512.593750
1320.714844	69534.515625
1319.626953	69777.000000
1318.538086	69419.828125
1317.450195	69170.718750
1316.361328	69194.976562
1315.272461	69232.992188
1314.183594	69590.085938
1313.093750	69354.890625
1312.004883	68812.281250
1310.915039	68469.468750
1309.825195	69120.046875
1308.735352	68972.250000
1307.644531	68948.328125
1306.554688	68800.601562
1305.463867	69033.445312
1304.373047	68725.328125
1303.282227	69159.742188
1302.190430	68918.148438
1301.099609	68720.156250
1300.007812	68483.304688
1298.916016	68722.804688
1297.824219	68856.906250
1296.731445	68485.093750
1295.639648	68648.937500
1294.546875	68421.445312
1293.454102	68452.546875
1292.361328	68842.734375
1291.267578	68569.585938
1290.174805	68413.148438
1289.081055	68535.656250
1287.987305	68276.414062
1286.892578	68673.125000
1285.798828	68391.101562
1284.704102	67908.148438
1283.609375	68110.562500
1282.514648	67872.171875
1281.419922	68163.554688
1280.325195	68219.710938
1279.229492	68045.320312
1278.133789	67592.601562
1277.038086	67956.828125
1275.942383	67930.843750
1274.845703	68021.187500
1273.750000	67698.765625
1272.653320	67946.414062
1271.556641	67578.531250
1270.458984	67039.843750
1269.362305	67818.390625
1268.264648	67334.531250
1267.166992	67244.898438
1266.069336	67412.640625
1264.971680	67527.945312
1263.873047	67092.281250
1262.775391	67496.671875
1261.676758	67293.289062
1260.578125	67060.398438
1259.478516	66934.507812
1258.379883	67550.148438
1257.280273	67062.632812
1256.180664	66741.273438
1255.081055	67083.812500
1253.981445	66903.468750
1252.880859	66877.718750
1251.780273	67104.164062
1250.679688	67171.515625
1249.579102	66993.554688
1248.478516	66465.945312
1247.376953	66758.132812
1246.276367	66596.218750
1245.174805	66665.859375
1244.072266	66667.390625
1242.970703	66993.351562
1241.868164	66999.351562
1240.766602	66919.171875
1239.664062	67090.710938
1238.560547	66339.484375
1237.458008	66696.921875
1236.354492	67027.039062
1235.251953	66011.109375
1234.148438	66832.828125
1233.043945	66150.257812
1231.940430	66514.195312
1230.835938	65999.476562
1229.731445	66345.187500
1228.626953	65898.585938
1227.522461	66275.867188
1226.417969	66259.320312
1225.312500	66156.812500
1224.207031	66070.171875
1223.101562	66347.640625
1221.996094	66274.554688
1220.889648	66305.484375
1219.784180	65958.953125
1218.677734	66017.039062
1217.571289	66115.765625
1216.463867	66205.414062
1215.357422	66554.750000
1214.250000	66321.382812
1213.142578	65483.046875
1212.035156	65881.976562
1210.927734	66357.492188
1209.819336	66085.960938
1208.710938	66060.421875
1207.603516	65992.039062
1206.494141	65765.812500
1205.385742	65952.296875
1204.276367	66251.421875
1203.167969	65971.171875
1202.058594	65625.664062
1200.948242	66057.609375
1199.838867	65707.703125
1198.728516	65722.796875
1197.619141	66077.921875
1196.508789	65746.203125
1195.397461	65578.929688
1194.287109	65776.328125
1193.175781	65989.406250
1192.064453	65878.421875
1190.953125	65526.781250
1189.841797	65962.437500
1188.730469	65750.320312
1187.618164	66028.390625
1186.505859	65627.515625
1185.393555	65581.875000
1184.281250	65805.890625
1183.167969	65935.460938
1182.055664	65516.910156
1180.942383	65774.492188
1179.829102	65414.500000
1178.714844	65315.050781
1177.601562	65734.132812
1176.487305	65603.234375
1175.373047	65476.875000
1174.258789	65332.609375
1173.143555	65486.703125
1172.029297	65355.937500
1170.914062	65368.710938
1169.798828	65780.500000
1168.683594	64883.222656
1167.568359	65104.468750
1166.452148	65097.101562
1165.335938	65477.269531
1164.219727	65194.355469
1163.103516	65135.468750
1161.986328	65266.898438
1160.870117	65028.937500
1159.752930	64815.679688
1158.635742	65220.078125
1157.518555	64973.296875
1156.400391	64905.546875
1155.282227	64580.636719
1154.164062	64533.101562
1153.045898	64722.554688
1151.927734	64538.660156
1150.808594	64441.984375
1149.690430	64658.156250
1148.571289	64503.406250
1147.452148	64775.320312
1146.332031	64187.367188
1145.212891	64396.718750
1144.092773	64208.632812
1142.972656	64743.757812
1141.852539	63828.195312
1140.731445	64171.312500
1139.611328	64228.769531
1138.490234	64130.085938
1137.369141	64035.894531
1136.248047	64059.894531
1135.125977	63905.558594
1134.003906	64134.609375
1132.882812	63817.644531
1131.760742	63574.312500
1130.637695	63963.667969
1129.515625	63998.773438
1128.392578	63192.191406
1127.269531	63919.781250
1126.146484	63865.835938
1125.023438	63578.238281
1123.899414	63381.964844
1122.775391	63590.644531
1121.651367	62954.042969
1120.527344	63634.164062
1119.403320	63435.792969
1118.278320	63250.828125
1117.153320	63617.128906
1116.028320	63314.414062
1114.903320	62858.507812
1113.778320	63653.398438
1112.652344	63082.097656
1111.526367	62986.207031
1110.400391	63252.230469
1109.274414	62998.734375
1108.147461	63300.164062
1107.021484	62957.988281
1105.894531	62760.140625
1104.767578	62970.496094
1103.639648	62730.574219
1102.512695	62721.339844
1101.384766	62920.496094
1100.256836	63035.347656
1099.128906	63026.054688
1098.000000	62651.167969
1096.872070	63113.800781
1095.743164	62433.375000
1094.614258	62514.980469
1093.485352	62707.257812
1092.355469	62777.710938
1091.226562	62752.964844
1090.096680	62752.562500
1088.966797	62455.691406
1087.835938	62300.496094
1086.706055	62782.312500
1085.575195	62529.812500
1084.444336	62465.324219
1083.313477	62688.218750
1082.182617	62495.535156
1081.050781	62853.125000
1079.918945	62499.203125
1078.787109	62677.738281
1077.655273	62268.765625
1076.523438	62191.140625
1075.390625	62473.382812
1074.257812	62565.699219
1073.125000	62362.265625
1071.992188	62156.699219
1070.859375	62518.148438
1069.725586	62471.421875
1068.591797	62184.347656
1067.458008	62157.539062
1066.324219	62203.484375
1065.189453	62416.914062
1064.054688	62317.351562
1062.919922	62017.335938
1061.785156	62772.554688
1060.650391	62375.652344
1059.514648	62324.605469
1058.378906	62870.195312
1057.243164	63118.429688
1056.107422	63608.652344
1054.971680	64052.484375
1053.834961	63136.578125
1052.698242	62990.847656
1051.561523	62304.175781
1050.424805	62453.277344
1049.287109	61885.664062
1048.150391	62318.316406
1047.012695	62076.164062
1045.874023	61943.953125
1044.736328	61930.414062
1043.597656	61921.269531
1042.459961	61802.328125
1041.321289	61345.316406
1040.181641	61882.863281
1039.042969	61731.062500
1037.903320	61921.632812
1036.764648	61721.613281
1035.624023	61398.824219
1034.484375	61834.968750
1033.344727	61529.816406
1032.204102	61483.464844
1031.063477	61610.285156
1029.922852	61697.613281
1028.782227	61677.542969
1027.640625	61370.492188
1026.499023	61681.218750
1025.357422	61413.691406
1024.215820	61542.562500
1023.074219	61599.140625
1021.931641	61611.921875
1020.789062	61160.777344
1019.646484	60928.585938
1018.503906	60858.347656
1017.360352	61251.800781
1016.216797	61126.859375
1015.074219	61244.640625
1013.929688	60990.773438
1012.786133	60905.277344
1011.641602	61051.429688
1010.498047	60970.320312
1009.353516	61168.828125
1008.208008	61260.246094
1007.063477	61076.511719
1005.917969	60279.390625
1004.772461	61067.191406
1003.626953	60689.363281
1002.481445	60427.308594
1001.335938	61020.488281
1000.189453	60841.343750
999.042969	61076.589844
997.896484	60526.847656
996.749023	60600.753906
995.602539	60886.035156
994.455078	60883.574219
993.307617	60826.640625
992.160156	61015.875000
991.011719	60730.253906
989.864258	60797.492188
988.715820	60616.511719
987.567383	60753.394531
986.417969	60457.140625
985.269531	60744.128906
984.120117	60243.488281
982.970703	60819.691406
981.821289	60886.804688
980.670898	60479.898438
979.521484	60055.746094
978.371094	60594.601562
977.220703	60718.199219
976.070312	59983.535156
974.918945	60763.222656
973.768555	60497.941406
972.617188	60810.375000
971.464844	60245.566406
970.313477	60284.417969
969.162109	60301.546875
968.009766	60312.156250
966.857422	60717.609375
965.705078	60109.945312
964.551758	60400.339844
963.398438	60220.105469
962.246094	60094.128906
961.092773	59822.976562
959.938477	59963.667969
958.785156	59852.968750
957.630859	59854.957031
956.476562	60398.417969
955.322266	59975.859375
954.166992	59934.511719
953.012695	60328.281250
951.857422	60401.589844
950.702148	60039.917969
949.546875	59823.335938
948.390625	59838.281250
947.235352	59762.386719
946.079102	59766.519531
944.921875	59552.296875
943.765625	59580.242188
942.609375	59848.058594
941.452148	59608.000000
940.294922	59670.476562
939.137695	59592.531250
937.979492	59460.621094
936.821289	59469.101562
935.664062	59319.992188
934.504883	59663.031250
933.346680	59263.613281
932.188477	59023.996094
931.029297	59651.636719
929.870117	59375.367188
928.710938	59461.464844
927.550781	59204.726562
926.391602	59415.839844
925.231445	59277.738281
924.071289	59458.585938
922.910156	59051.222656
921.750000	59266.507812
920.588867	59150.058594
919.427734	59311.410156
918.266602	58831.167969
917.105469	58930.093750
915.943359	58968.722656
914.781250	59112.765625
913.619141	58669.476562
912.457031	58854.378906
911.294922	58785.464844
910.131836	58497.273438
908.968750	58445.640625
907.805664	58778.734375
906.642578	58443.421875
905.478516	58819.355469
904.314453	58544.296875
903.150391	58149.070312
901.986328	58593.554688
900.821289	58810.308594
899.657227	58413.097656
898.492188	58252.093750
897.327148	58509.546875
896.161133	58149.074219
894.996094	58187.671875
893.830078	58552.210938
892.664062	58211.218750
891.498047	57936.800781
890.331055	58314.035156
889.165039	58144.695312
887.998047	58292.503906
886.831055	58129.652344
885.663086	57782.671875
884.496094	57714.187500
883.328125	57889.785156
882.160156	57814.878906
880.992188	57776.378906
879.824219	58120.898438
878.655273	58050.257812
877.486328	57906.921875
876.317383	57673.816406
875.148438	57795.722656
873.978516	57795.734375
872.808594	57733.757812
871.638672	58460.332031
870.468750	57917.527344
869.298828	57573.582031
868.127930	57688.953125
866.957031	57759.429688
865.786133	57943.035156
864.615234	58205.550781
863.443359	58051.796875
862.272461	57599.371094
861.100586	57878.863281
859.927734	57789.238281
858.755859	57637.800781
857.583008	57718.824219
856.411133	57392.640625
855.237305	58042.765625
854.064453	58157.757812
852.891602	57601.558594
851.717773	57516.343750
850.543945	57437.550781
849.370117	57573.855469
848.195312	57241.714844
847.021484	57509.976562
845.846680	57556.796875
844.671875	57637.644531
843.496094	57416.355469
842.321289	57550.371094
841.145508	57437.636719
839.969727	57694.917969
838.793945	57575.816406
837.618164	57110.296875
836.441406	57949.769531
835.264648	57477.976562
834.087891	57728.625000
832.911133	57677.578125
831.733398	57399.332031
830.555664	57770.867188
829.377930	57637.046875
828.200195	57596.660156
827.022461	57271.937500
825.843750	57715.343750
824.665039	57708.894531
823.486328	57640.941406
822.307617	57804.132812
821.127930	57748.902344
819.949219	57240.093750
818.769531	57189.218750
817.588867	57153.195312
816.409180	57254.878906
815.228516	57437.007812
814.047852	57832.949219
812.867188	57449.593750
811.686523	57339.449219
810.504883	57157.382812
809.324219	57277.984375
808.142578	57472.585938
806.959961	57432.312500
805.778320	57474.535156
804.595703	57542.113281
803.413086	57334.828125
802.230469	57393.945312
801.047852	57704.527344
799.864258	57186.714844
798.680664	57355.671875
797.497070	57114.808594
796.313477	56821.234375
795.129883	57203.406250
793.945312	57021.800781
792.760742	57004.886719
791.576172	56610.253906
790.390625	56361.335938
789.206055	56943.621094
788.020508	57129.191406
786.834961	56743.250000
785.649414	56869.750000
784.462891	57249.144531
783.276367	56947.687500
782.089844	56998.218750
780.903320	56317.710938
779.716797	56659.000000
778.529297	56823.269531
777.341797	56783.238281
776.154297	57008.464844
774.966797	56467.484375
773.778320	56349.675781
772.590820	56547.496094
771.402344	56221.457031
770.212891	56427.636719
769.024414	56366.687500
767.834961	56209.046875
766.645508	56553.835938
765.456055	56721.960938
764.266602	56646.281250
763.076172	56312.230469
761.886719	56341.667969
760.696289	56293.394531
759.504883	56641.968750
758.314453	56196.894531
757.123047	56356.453125
755.931641	56509.656250
754.740234	56276.750000
753.548828	56046.027344
752.356445	55869.917969
751.164062	56180.355469
749.971680	56530.507812
748.779297	56247.496094
747.585938	55937.339844
746.392578	56021.226562
745.199219	55857.871094
744.005859	56234.976562
742.812500	56205.664062
741.618164	56059.109375
740.423828	56002.621094
739.229492	55918.945312
738.035156	55862.500000
736.839844	55818.625000
735.644531	55689.003906
734.449219	55425.570312
733.253906	56178.488281
732.058594	55835.613281
730.862305	55858.664062
729.666016	55770.937500
728.469727	55474.289062
727.272461	56163.812500
726.076172	55537.179688
724.878906	55733.582031
723.681641	55478.910156
722.484375	56013.429688
721.286133	55994.648438
720.087891	55900.746094
718.889648	55370.820312
717.691406	55466.886719
716.493164	55850.734375
715.293945	55414.941406
714.094727	55306.628906
712.895508	55811.179688
711.695312	55171.390625
710.496094	55321.550781
709.295898	56017.472656
708.095703	55567.539062
706.895508	55834.156250
705.694336	55761.281250
704.493164	55134.695312
703.291992	55259.699219
702.090820	55280.609375
700.889648	55759.234375
699.687500	55143.503906
698.485352	56044.171875
697.283203	55775.871094
696.081055	55195.816406
694.877930	55769.617188
693.674805	55462.023438
692.471680	55405.964844
691.268555	54938.582031
690.065430	55262.742188
688.861328	55418.566406
687.657227	55183.984375
686.453125	55478.843750
685.248047	55397.921875
684.043945	55493.414062
682.838867	55717.503906
681.633789	55395.949219
680.427734	55026.808594
679.222656	55070.449219
678.016602	55068.460938
676.810547	55033.304688
675.604492	54929.769531
674.397461	54648.074219
673.190430	54691.730469
671.983398	54741.585938
670.776367	55153.820312
669.569336	54835.015625
668.361328	54915.855469
667.153320	54996.664062
665.945312	54992.597656
664.737305	54868.531250
663.528320	55054.792969
662.319336	54887.324219
661.110352	54637.203125
659.901367	54137.019531
658.692383	54600.246094
657.482422	54329.648438
656.272461	54490.988281
655.062500	54474.605469
653.851562	54534.648438
652.641602	54167.195312
651.430664	54514.257812
650.219727	54155.199219
649.007812	54442.277344
647.796875	54345.425781
646.584961	54452.863281
645.373047	54323.039062
644.161133	53902.464844
642.948242	54257.355469
641.735352	54360.593750
640.522461	53952.609375
639.309570	54665.871094
638.096680	53944.785156
636.882812	54192.199219
635.668945	54062.597656
634.455078	54161.625000
633.241211	53857.062500
632.026367	54213.402344
630.811523	54065.359375
629.596680	53907.082031
628.381836	53615.128906
627.166016	53360.312500
625.950195	54066.019531
624.734375	53683.718750
623.518555	53749.734375
622.302734	53819.832031
621.085938	53318.593750
619.869141	53635.300781
618.652344	53543.085938
617.435547	53508.410156
616.217773	53718.113281
615.000000	53689.574219
613.782227	53209.433594
612.564453	53669.457031
611.345703	53684.027344
610.126953	53427.773438
608.908203	53001.367188
607.689453	53192.414062
606.469727	53369.039062
605.250977	53291.382812
604.031250	53508.910156
602.810547	53382.070312
601.590820	53329.035156
600.370117	53581.250000
599.149414	53319.281250
597.928711	53237.613281
596.708008	52975.804688
595.486328	53094.832031
594.264648	53438.937500
593.042969	53408.453125
591.821289	53052.687500
590.598633	53122.511719
589.376953	53229.113281
588.154297	53280.468750
586.930664	53158.039062
585.708008	53152.152344
584.484375	53123.789062
583.260742	53434.593750
582.037109	53391.882812
580.813477	53138.820312
579.588867	53112.511719
578.364258	53016.792969
577.139648	53010.925781
575.914062	53460.167969
574.689453	53209.355469
573.463867	53272.808594
572.238281	52742.683594
571.012695	53136.566406
569.786133	52951.238281
568.559570	52623.281250
567.333008	52760.148438
566.106445	53013.113281
564.878906	53131.511719
563.652344	52708.015625
562.424805	52865.121094
561.197266	53152.484375
559.968750	52912.441406
558.740234	52979.851562
557.512695	52483.503906
556.283203	52813.441406
555.054688	52864.546875
553.825195	52612.570312
552.595703	52806.042969
551.366211	52694.457031
550.136719	52523.957031
548.906250	52351.488281
547.676758	52471.699219
546.446289	52689.382812
545.214844	52285.406250
543.984375	52202.460938
542.752930	52310.414062
541.521484	51898.609375
540.290039	52049.199219
539.057617	51942.000000
537.826172	51857.160156
536.593750	51719.601562
535.361328	51673.363281
534.127930	51795.453125
532.894531	51556.605469
531.662109	52118.542969
530.427734	51681.101562
529.194336	51517.375000
527.959961	51509.707031
526.726562	51589.136719
525.492188	51182.492188
524.256836	51126.285156
523.022461	51248.250000
521.787109	51248.722656
520.551758	51376.683594
519.316406	51205.148438
518.080078	51571.765625
516.843750	50807.656250
515.607422	50854.707031
514.371094	51059.437500
513.134766	51205.468750
511.897461	50953.304688
510.660156	50786.097656
509.422852	51406.843750
508.184570	50898.257812
506.947266	50765.480469
505.708984	50941.671875
504.470703	50603.023438
503.231445	50532.937500
501.993164	50541.578125
500.753906	51036.445312
499.514648	51157.941406
498.274414	50634.011719
497.035156	50868.457031
495.794922	50745.968750
494.554688	50976.265625
493.314453	50869.921875
492.073242	50437.199219
490.832031	50917.218750
489.590820	50651.824219
488.349609	50904.058594
487.108398	50407.218750
485.866211	50691.613281
484.624023	50875.261719
483.381836	50628.222656
482.138672	50501.980469
480.896484	50566.878906
479.653320	50591.527344
478.410156	50847.398438
477.166016	50628.726562
475.921875	50379.988281
474.678711	50456.890625
473.433594	50409.195312
472.189453	50729.128906
470.944336	50562.894531
469.700195	50394.710938
468.455078	50391.218750
467.208984	50496.125000
465.963867	50522.714844
464.717773	50454.984375
463.471680	50070.300781
462.224609	50157.125000
460.978516	50516.652344
459.731445	50116.125000
458.484375	50146.753906
457.237305	49998.984375
455.989258	49674.925781
454.742188	50140.378906
453.494141	50042.765625
452.245117	50075.371094
450.997070	49761.542969
449.748047	49754.144531
448.499023	50103.035156
447.250000	49927.460938
446.000977	50016.066406
444.750977	49656.523438
443.500977	49583.132812
442.250977	49701.746094
441.000000	49512.406250
439.750000	49449.070312
438.499023	49483.691406
437.248047	49482.328125
435.996094	49127.339844
434.745117	49301.816406
433.493164	49074.808594
432.241211	49037.574219
430.989258	48778.753906
429.736328	49300.453125
428.483398	48738.347656
427.230469	48906.703125
425.977539	49463.984375
424.723633	49225.261719
423.469727	48803.171875
422.215820	48630.453125
420.961914	48718.921875
419.708008	48462.574219
418.453125	48461.371094
417.198242	48687.277344
415.942383	48355.386719
414.687500	48658.886719
413.431641	48038.417969
412.175781	48308.019531
410.919922	48615.332031
409.664062	48622.042969
408.407227	48222.882812
407.150391	48541.964844
405.893555	48496.972656
404.635742	48499.718750
403.378906	48512.398438
402.121094	48389.910156
400.862305	48356.894531
399.604492	48451.054688
398.345703	48286.921875
397.086914	48635.281250
395.828125	48068.058594
394.569336	48293.226562
393.309570	48059.765625
392.049805	48340.417969
390.790039	48307.441406
389.530273	47867.777344
388.269531	47936.058594
387.008789	48047.945312
385.748047	47757.277344
384.487305	47714.523438
383.225586	48082.058594
381.963867	47993.675781
380.702148	47919.191406
379.440430	48048.765625
378.177734	47841.597656
376.915039	47527.578125
375.652344	47552.218750
374.389648	47594.664062
373.126953	47684.582031
371.863281	47337.187500
370.599609	47472.617188
369.334961	47283.621094
368.071289	47561.386719
366.806641	47370.464844
365.541992	47519.613281
364.277344	47510.593750
363.011719	47132.058594
361.746094	47016.425781
360.480469	47509.218750
359.214844	46957.101562
357.949219	47273.980469
356.682617	47085.355469
355.416016	47076.414062
354.149414	47251.000000
352.881836	46965.800781
351.614258	47033.812500
350.346680	47005.156250
349.079102	46670.863281
347.811523	47038.558594
346.542969	46883.757812
345.274414	46750.687500
344.005859	46982.195312
342.736328	46699.433594
341.466797	46804.796875
340.197266	46268.136719
338.927734	46387.320312
337.658203	46640.316406
336.387695	46222.074219
335.117188	46242.804688
333.846680	46224.175781
332.575195	46170.144531
331.304688	45830.964844
330.033203	45753.429688
328.761719	46273.558594
327.489258	45580.753906
326.216797	45815.761719
324.944336	45822.765625
323.671875	45935.843750
322.399414	45929.066406
321.125977	45698.437500
319.852539	45636.730469
318.579102	45453.347656
317.305664	45372.085938
316.031250	45436.050781
314.756836	45672.628906
313.482422	45493.292969
312.207031	45237.539062
310.932617	45593.613281
309.657227	45671.187500
308.381836	45425.343750
307.105469	45220.738281
305.830078	45129.839844
304.553711	45052.691406
303.277344	45339.835938
302.000000	44957.210938
300.722656	44766.582031
299.446289	45096.671875
298.167969	45162.445312
296.890625	45108.839844
295.612305	44693.355469
294.333984	44706.355469
293.055664	44427.984375
291.777344	44771.433594
290.498047	44815.679688
289.218750	44265.785156
287.939453	44816.183594
286.660156	44485.300781
285.379883	44365.488281
284.099609	44183.226562
282.819336	44038.128906
281.539062	44258.128906
280.257812	44347.277344
278.976562	44190.519531
277.695312	44365.484375
276.413086	43734.777344
275.131836	43974.117188
273.849609	43753.195312
272.567383	43844.273438
271.284180	43808.625000
270.001953	44117.914062
268.718750	43423.664062
267.435547	43736.800781
266.151367	43927.117188
264.868164	43757.113281
263.583984	43295.132812
262.298828	43970.101562
261.014648	44210.816406
259.729492	44307.453125
258.444336	44758.113281
257.159180	45241.664062
255.874023	45948.664062
254.587891	45558.808594
253.301758	44753.101562
252.015625	44732.894531
250.729492	44226.898438
249.442383	43859.031250
248.155273	43596.195312
246.868164	43224.699219
245.581055	43101.882812
244.292969	43227.601562
243.004883	42914.613281
241.716797	42780.273438
240.427734	42876.871094
239.139648	42125.718750
237.850586	42282.523438
236.560547	42784.429688
235.271484	42475.750000
233.981445	42095.464844
232.691406	42257.960938
231.401367	42102.625000
230.111328	42102.324219
228.820312	42272.468750
227.529297	42212.101562
226.238281	41679.335938
224.946289	41795.253906
223.655273	41746.617188
222.363281	41465.796875
221.070312	41643.593750
219.778320	41517.636719
218.485352	41505.824219
217.192383	41528.824219
215.899414	41418.417969
214.605469	41453.015625
213.312500	41228.652344
212.018555	41068.128906
210.723633	41108.562500
209.429688	40579.234375
208.134766	40978.902344
206.839844	40658.300781
205.544922	40638.937500
204.249023	40413.085938
202.954102	40287.652344
201.658203	40661.902344
200.361328	40222.078125
199.065430	40033.109375
197.768555	40574.925781
196.471680	40000.429688
195.174805	40015.894531
193.876953	40204.773438
192.579102	39990.933594
191.281250	39844.589844
189.983398	39887.027344
188.684570	39919.820312
187.385742	39527.160156
186.086914	39617.746094
184.788086	39794.886719
183.488281	39754.554688
182.188477	39494.949219
180.888672	39643.156250
179.588867	39387.511719
178.288086	39618.347656
176.988281	39255.164062
175.686523	39370.628906
174.385742	39384.214844
173.083984	39472.714844
171.782227	39303.812500
170.480469	38985.191406
169.178711	39138.988281
167.875977	39476.996094
166.573242	38901.351562
165.270508	39014.773438
163.967773	39064.843750
162.664062	38913.496094
161.360352	38955.886719
160.056641	38699.164062
158.751953	38981.195312
157.448242	38668.980469
156.143555	38793.777344
154.838867	38504.703125
153.533203	38796.125000
152.227539	38662.281250
150.921875	38291.058594
149.616211	38197.558594
148.310547	38410.335938
147.003906	38006.839844
145.697266	37988.062500
144.390625	37850.687500
143.083008	37933.308594
141.775391	37943.234375
140.467773	38021.976562
139.160156	38148.472656
137.851562	37447.425781
136.542969	37493.734375
135.234375	37559.121094
133.925781	37408.656250
132.616211	36334.003906
131.307617	36454.937500
129.998047	35940.175781
128.687500	35461.867188
127.377930	35008.546875
126.067383	34194.832031
124.756836	33896.425781
123.445312	33277.753906
122.133789	32396.193359
120.823242	31772.324219
119.510742	30256.714844
