#Wave		#Intensity
1999.091797	134196.656250
1998.124023	134183.750000
1997.156250	134465.140625
1996.187500	133739.281250
1995.219727	133819.250000
1994.250977	134560.062500
1993.282227	134983.140625
1992.313477	134575.093750
1991.344727	135397.937500
1990.375977	134744.875000
1989.406250	134873.562500
1988.437500	134682.421875
1987.467773	134769.796875
1986.498047	134658.656250
1985.528320	135475.437500
1984.557617	135387.375000
1983.587891	135013.359375
1982.617188	135288.640625
1981.646484	134505.218750
1980.675781	134829.406250
1979.705078	135266.781250
1978.733398	136625.609375
1977.762695	135247.906250
1976.791016	135340.109375
1975.819336	134997.453125
1974.847656	135418.937500
1973.875000	135475.046875
1972.903320	136027.468750
1971.930664	135132.093750
1970.958984	136005.703125
1969.986328	135442.203125
1969.012695	135690.968750
1968.040039	136538.312500
1967.066406	136216.484375
1966.093750	136082.250000
1965.120117	136469.390625
1964.146484	136206.781250
1963.172852	136912.078125
1962.198242	136554.500000
1961.224609	136725.687500
1960.250000	136298.984375
1959.275391	136767.734375
1958.300781	136577.140625
1957.326172	136709.718750
1956.350586	137229.421875
1955.375977	136890.125000
1954.400391	137596.718750
1953.424805	137390.734375
1952.449219	136808.171875
1951.473633	137258.203125
1950.497070	137177.875000
1949.520508	137958.031250
1948.544922	137206.750000
1947.568359	137587.265625
1946.590820	137762.875000
1945.614258	137797.656250
1944.637695	137261.843750
1943.660156	137219.953125
1942.682617	137825.187500
1941.705078	137591.390625
1940.727539	137401.140625
1939.749023	138609.328125
1938.771484	137859.203125
1937.792969	138282.328125
1936.814453	137430.296875
1935.835938	138062.812500
1934.857422	137655.546875
1933.877930	137784.703125
1932.899414	137765.718750
1931.919922	138461.531250
1930.940430	138192.296875
1929.960938	137530.140625
1928.980469	138108.250000
1928.000977	138936.140625
1927.020508	137784.468750
1926.040039	138091.890625
1925.059570	138391.546875
1924.079102	138306.156250
1923.098633	138531.750000
1922.117188	137913.750000
1921.135742	138445.062500
1920.155273	138469.250000
1919.172852	139453.656250
1918.191406	138380.046875
1917.209961	138225.984375
1916.227539	137970.125000
1915.245117	138974.265625
1914.262695	138535.140625
1913.280273	138452.375000
1912.297852	139094.656250
1911.314453	139083.015625
1910.332031	138433.093750
1909.348633	138843.640625
1908.365234	139111.671875
1907.381836	138538.312500
1906.397461	139083.296875
1905.414062	139127.546875
1904.429688	139329.281250
1903.445312	138631.796875
1902.460938	139554.750000
1901.476562	139814.687500
1900.491211	139315.484375
1899.506836	139504.281250
1898.521484	138688.093750
1897.536133	138615.578125
1896.550781	139631.390625
1895.565430	139594.250000
1894.579102	138715.187500
1893.592773	139773.546875
1892.607422	139711.031250
1891.621094	138974.328125
1890.633789	139246.468750
1889.647461	139298.078125
1888.660156	139934.843750
1887.673828	139548.125000
1886.686523	139976.968750
1885.699219	139762.546875
1884.710938	138801.390625
1883.723633	139913.500000
1882.735352	139213.296875
1881.748047	140400.843750
1880.759766	139602.140625
1879.770508	139866.000000
1878.782227	140005.843750
1877.793945	139885.218750
1876.804688	139911.250000
1875.815430	140548.921875
1874.826172	139515.984375
1873.836914	139913.453125
1872.846680	139952.062500
1871.857422	140240.718750
1870.867188	140433.281250
1869.876953	140128.390625
1868.886719	140318.390625
1867.896484	139849.562500
1866.905273	141026.218750
1865.915039	140575.062500
1864.923828	139904.609375
1863.932617	140621.593750
1862.941406	139842.906250
1861.949219	140438.609375
1860.958008	140330.781250
1859.965820	140991.703125
1858.973633	141060.187500
1857.981445	141431.000000
1856.989258	141202.125000
1855.997070	141920.343750
1855.003906	140971.250000
1854.010742	142346.375000
1853.017578	141624.078125
1852.024414	141506.093750
1851.031250	142258.828125
1850.037109	141916.828125
1849.043945	141735.953125
1848.049805	142103.406250
1847.055664	142257.000000
1846.060547	141975.562500
1845.066406	141749.531250
1844.072266	141707.031250
1843.077148	142114.359375
1842.082031	141571.828125
1841.086914	142009.171875
1840.090820	142559.375000
1839.095703	142524.281250
1838.099609	142032.250000
1837.104492	142695.109375
1836.108398	142941.093750
1835.111328	141889.640625
1834.115234	142589.781250
1833.119141	142291.296875
1832.122070	143018.703125
1831.125000	142715.218750
1830.127930	142261.421875
1829.130859	143073.656250
1828.132812	143153.765625
1827.135742	143193.750000
1826.137695	143253.765625
1825.139648	143160.937500
1824.141602	142810.187500
1823.142578	142907.765625
1822.144531	142790.000000
1821.145508	143828.750000
1820.146484	143107.703125
1819.147461	143270.203125
1818.148438	143752.890625
1817.148438	143089.734375
1816.149414	142789.453125
1815.149414	143977.109375
1814.149414	143474.250000
1813.149414	143521.500000
1812.149414	143738.687500
1811.148438	142966.250000
1810.148438	143815.531250
1809.147461	143942.593750
1808.146484	143562.625000
1807.144531	143846.984375
1806.143555	143552.046875
1805.142578	144630.078125
1804.140625	144993.953125
1803.138672	144169.937500
1802.136719	144466.406250
1801.133789	143799.906250
1800.131836	143632.437500
1799.128906	143873.953125
1798.125977	145192.406250
1797.123047	144085.031250
1796.120117	144687.703125
1795.117188	144335.796875
1794.113281	144377.640625
1793.110352	143712.062500
1792.106445	144618.187500
1791.101562	143937.828125
1790.097656	144323.265625
1789.093750	143847.312500
1788.088867	143498.437500
1787.083984	144757.109375
1786.079102	143798.671875
1785.074219	144163.859375
1784.069336	144610.968750
1783.063477	144155.328125
1782.057617	145097.000000
1781.051758	144716.000000
1780.045898	144588.593750
1779.040039	144553.171875
1778.034180	143551.359375
1777.027344	144224.031250
1776.020508	144109.203125
1775.013672	144004.343750
1774.006836	144103.093750
1773.000000	143494.390625
1771.992188	144645.406250
1770.984375	143654.703125
1769.976562	144711.015625
1768.968750	143623.890625
1767.960938	145287.406250
1766.953125	144698.937500
1765.944336	144157.781250
1764.935547	144434.750000
1763.926758	144736.390625
1762.917969	145107.296875
1761.908203	144063.531250
1760.899414	144394.796875
1759.889648	143878.984375
1758.879883	143809.031250
1757.870117	145056.109375
1756.860352	144577.562500
1755.849609	144240.234375
1754.839844	143779.312500
1753.829102	144872.109375
1752.818359	145200.234375
1751.807617	145070.750000
1750.795898	144656.968750
1749.785156	144574.578125
1748.773438	144573.765625
1747.761719	144587.796875
1746.750000	144789.578125
1745.738281	144400.875000
1744.725586	144871.828125
1743.712891	144458.546875
1742.701172	145744.093750
1741.688477	144451.984375
1740.674805	144532.593750
1739.662109	144551.500000
1738.648438	144819.578125
1737.635742	144974.078125
1736.622070	145204.984375
1735.608398	144829.171875
1734.593750	144769.062500
1733.580078	144950.562500
1732.565430	145218.250000
1731.550781	144936.312500
1730.536133	145171.875000
1729.521484	145146.218750
1728.506836	145036.828125
1727.491211	145252.531250
1726.475586	145416.437500
1725.459961	145476.906250
1724.444336	145596.406250
1723.428711	144820.140625
1722.412109	145143.906250
1721.396484	145787.343750
1720.379883	145085.218750
1719.363281	144948.921875
1718.345703	146339.437500
1717.329102	145760.484375
1716.311523	145892.000000
1715.293945	145544.296875
1714.276367	145631.578125
1713.258789	145677.062500
1712.241211	145619.375000
1711.222656	146050.359375
1710.205078	145874.765625
1709.186523	146239.250000
1708.167969	145516.390625
1707.148438	146128.625000
1706.129883	145710.250000
1705.110352	146829.984375
1704.090820	146595.546875
1703.071289	146743.703125
1702.051758	145643.921875
1701.032227	145998.093750
1700.011719	146636.406250
1698.991211	146338.484375
1697.971680	146694.765625
1696.950195	146541.437500
1695.929688	146199.562500
1694.909180	145813.750000
1693.887695	146451.390625
1692.866211	146214.953125
1691.844727	146641.828125
1690.823242	145903.828125
1689.800781	146739.140625
1688.779297	146385.390625
1687.756836	147046.671875
1686.734375	147123.328125
1685.711914	147075.281250
1684.688477	146875.687500
1683.666016	146524.640625
1682.642578	146669.734375
1681.619141	146836.750000
1680.595703	146695.937500
1679.572266	146513.656250
1678.547852	146470.609375
1677.524414	147262.484375
1676.500000	146953.250000
1675.475586	146678.296875
1674.451172	146364.406250
1673.425781	146755.625000
1672.401367	147312.546875
1671.375977	146679.218750
1670.350586	147267.656250
1669.325195	146510.218750
1668.299805	146572.000000
1667.273438	146838.453125
1666.247070	146483.500000
1665.220703	146530.609375
1664.194336	146767.671875
1663.167969	147737.640625
1662.141602	147041.890625
1661.114258	146429.156250
1660.086914	147004.359375
1659.059570	146494.031250
1658.032227	147188.234375
1657.004883	146303.421875
1655.976562	146824.703125
1654.948242	147051.562500
1653.919922	147331.828125
1652.891602	146002.750000
1651.863281	146730.281250
1650.833984	146619.203125
1649.805664	146964.921875
1648.776367	146542.890625
1647.747070	146305.593750
1646.717773	146063.515625
1645.687500	146627.562500
1644.658203	146606.390625
1643.627930	146757.546875
1642.597656	146636.859375
1641.567383	145982.468750
1640.536133	146250.062500
1639.505859	146381.750000
1638.474609	146474.578125
1637.443359	146004.906250
1636.412109	146226.234375
1635.380859	145945.796875
1634.348633	145854.468750
1633.316406	146412.437500
1632.285156	146502.703125
1631.252930	145505.531250
1630.219727	146230.328125
1629.187500	145938.046875
1628.154297	146459.171875
1627.121094	146423.468750
1626.087891	145787.703125
1625.054688	145614.234375
1624.021484	146444.625000
1622.987305	146116.312500
1621.954102	145722.828125
1620.919922	145537.375000
1619.885742	146007.015625
1618.850586	145964.156250
1617.816406	145720.750000
1616.781250	145735.921875
1615.746094	145466.078125
1614.710938	146266.125000
1613.675781	145733.078125
1612.639648	146004.109375
1611.604492	146243.656250
1610.568359	145976.343750
1609.532227	146153.062500
1608.496094	146351.421875
1607.458984	146137.265625
1606.422852	145378.187500
1605.385742	144862.890625
1604.348633	145859.234375
1603.311523	145785.093750
1602.274414	144583.187500
1601.236328	145097.171875
1600.198242	146516.718750
1599.160156	146425.640625
1598.122070	145576.015625
1597.083984	146111.109375
1596.045898	145064.453125
1595.006836	145399.656250
1593.967773	145932.062500
1592.928711	145740.093750
1591.889648	146132.718750
1590.849609	145700.250000
1589.810547	146006.156250
1588.770508	145751.781250
1587.730469	145492.656250
1586.690430	145517.234375
1585.650391	146197.796875
1584.609375	146037.234375
1583.568359	145341.046875
1582.527344	146271.031250
1581.486328	145815.171875
1580.445312	146161.343750
1579.403320	145818.453125
1578.362305	146162.093750
1577.320312	146109.656250
1576.278320	145659.000000
1575.236328	146599.718750
1574.193359	146221.078125
1573.150391	146156.656250
1572.108398	146279.265625
1571.065430	146835.671875
1570.021484	146191.203125
1568.978516	145908.781250
1567.934570	146876.984375
1566.891602	147349.031250
1565.847656	146494.156250
1564.803711	146829.609375
1563.758789	146367.734375
1562.714844	146784.468750
1561.669922	146468.734375
1560.625000	146796.750000
1559.580078	145916.546875
1558.535156	146799.437500
1557.489258	146665.640625
1556.443359	146632.328125
1555.398438	147069.953125
1554.351562	146866.859375
1553.305664	146243.250000
1552.259766	147466.765625
1551.212891	147605.296875
1550.166016	146766.906250
1549.119141	146490.000000
1548.072266	146946.156250
1547.025391	147180.156250
1545.977539	146898.515625
1544.929688	147411.609375
1543.881836	147986.562500
1542.833984	147206.359375
1541.786133	147585.546875
1540.737305	147151.453125
1539.688477	147594.875000
1538.639648	147435.046875
1537.590820	147485.000000
1536.541992	146908.234375
1535.493164	147427.609375
1534.443359	147770.500000
1533.393555	147348.781250
1532.343750	147870.156250
1531.293945	147077.156250
1530.243164	147526.968750
1529.192383	147607.718750
1528.142578	147574.234375
1527.091797	147552.640625
1526.040039	147390.703125
1524.989258	147300.171875
1523.937500	148712.437500
1522.885742	147958.406250
1521.833984	148069.843750
1520.782227	147477.781250
1519.730469	147872.015625
1518.677734	147508.250000
1517.625000	147175.500000
1516.572266	147284.562500
1515.519531	147327.109375
1514.466797	147761.343750
1513.413086	147079.843750
1512.360352	146830.484375
1511.306641	146927.625000
1510.252930	148113.609375
1509.198242	147342.375000
1508.144531	147147.671875
1507.089844	147495.984375
1506.035156	147604.750000
1504.980469	147083.000000
1503.925781	147234.437500
1502.870117	147205.750000
1501.815430	147345.250000
1500.759766	147162.578125
1499.704102	147688.031250
1498.647461	146792.703125
1497.591797	147074.187500
1496.535156	147575.671875
1495.479492	146614.578125
1494.421875	146815.484375
1493.365234	147461.015625
1492.308594	146760.593750
1491.250977	147576.156250
1490.193359	146946.875000
1489.135742	146400.546875
1488.078125	146575.250000
1487.020508	147659.625000
1485.961914	146546.421875
1484.904297	146909.953125
1483.845703	146463.281250
1482.786133	146654.312500
1481.727539	146597.375000
1480.668945	146335.093750
1479.609375	146570.859375
1478.549805	145433.250000
1477.490234	147072.796875
1476.429688	146768.125000
1475.370117	146996.546875
1474.309570	146076.593750
1473.249023	146668.093750
1472.188477	146340.125000
1471.127930	147016.203125
1470.066406	146151.062500
1469.005859	146878.734375
1467.944336	146275.375000
1466.882812	146202.062500
1465.820312	145872.156250
1464.758789	146083.781250
1463.696289	146015.250000
1462.633789	145972.609375
1461.571289	146092.343750
1460.508789	145369.843750
1459.446289	146171.703125
1458.382812	146768.671875
1457.319336	146025.281250
1456.255859	146114.296875
1455.192383	146064.609375
1454.128906	146106.562500
1453.064453	146070.984375
1452.000000	145852.171875
1450.935547	146140.750000
1449.871094	146140.375000
1448.806641	146130.609375
1447.741211	145388.468750
1446.675781	146148.625000
1445.610352	146802.906250
1444.544922	146070.406250
1443.479492	145089.531250
1442.413086	145677.968750
1441.346680	145977.765625
1440.280273	146113.343750
1439.213867	146061.359375
1438.147461	145374.265625
1437.080078	145577.812500
1436.013672	144998.812500
1434.946289	145956.578125
1433.878906	145733.671875
1432.810547	145585.765625
1431.743164	145393.421875
1430.674805	144967.093750
1429.606445	145507.406250
1428.538086	145757.390625
1427.469727	145354.578125
1426.400391	145728.453125
1425.331055	145819.218750
1424.262695	146576.312500
1423.192383	145563.500000
1422.123047	145373.750000
1421.053711	145586.015625
1419.983398	145777.156250
1418.913086	145713.609375
1417.842773	145157.265625
1416.772461	145801.390625
1415.701172	145656.140625
1414.630859	146092.171875
1413.559570	145183.718750
1412.488281	145120.296875
1411.416016	145441.859375
1410.344727	145735.312500
1409.272461	145058.421875
1408.200195	145552.359375
1407.127930	145225.468750
1406.055664	145127.109375
1404.983398	145131.328125
1403.910156	145690.109375
1402.836914	145524.140625
1401.763672	145593.500000
1400.690430	145252.921875
1399.617188	145080.125000
1398.542969	145079.656250
1397.468750	144892.968750
1396.394531	144475.953125
1395.320312	145045.640625
1394.245117	145177.750000
1393.170898	144614.343750
1392.095703	144851.140625
1391.020508	145052.953125
1389.945312	145073.359375
1388.869141	145226.234375
1387.793945	145248.921875
1386.717773	144583.843750
1385.641602	144650.765625
1384.565430	144399.453125
1383.488281	144912.218750
1382.412109	144718.984375
1381.334961	144354.031250
1380.257812	144420.890625
1379.180664	144708.171875
1378.102539	144870.062500
1377.025391	145050.453125
1375.947266	144460.765625
1374.869141	144972.734375
1373.791016	144390.218750
1372.711914	144229.781250
1371.633789	143860.812500
1370.554688	144608.859375
1369.475586	144260.796875
1368.396484	144950.578125
1367.316406	144855.000000
1366.237305	144419.078125
1365.157227	144874.609375
1364.077148	143973.562500
1362.997070	144380.406250
1361.916016	144433.078125
1360.835938	144411.687500
1359.754883	144202.953125
1358.673828	145076.578125
1357.592773	143612.265625
1356.511719	143792.140625
1355.429688	144002.000000
1354.347656	144348.109375
1353.265625	144287.437500
1352.183594	144402.359375
1351.101562	144214.656250
1350.018555	143983.140625
1348.935547	144028.781250
1347.852539	144067.453125
1346.769531	143986.093750
1345.686523	143152.484375
1344.602539	144358.718750
1343.519531	144226.578125
1342.435547	144096.796875
1341.350586	143630.375000
1340.266602	143486.890625
1339.181641	143852.890625
1338.097656	144038.984375
1337.012695	143077.468750
1335.926758	142943.390625
1334.841797	144258.218750
1333.756836	144001.890625
1332.670898	143911.453125
1331.584961	144154.843750
1330.499023	143825.000000
1329.412109	143575.828125
1328.326172	143635.062500
1327.239258	144053.140625
1326.152344	143808.640625
1325.065430	143614.812500
1323.977539	143621.093750
1322.890625	143949.203125
1321.802734	143419.859375
1320.714844	143306.640625
1319.626953	143347.406250
1318.538086	143475.453125
1317.450195	143038.421875
1316.361328	143290.453125
1315.272461	143133.718750
1314.183594	142898.984375
1313.093750	143056.796875
1312.004883	143278.796875
1310.915039	143220.796875
1309.825195	142738.453125
1308.735352	142403.046875
1307.644531	142810.718750
1306.554688	143582.765625
1305.463867	142552.828125
1304.373047	142735.640625
1303.282227	143415.609375
1302.190430	142906.296875
1301.099609	142596.437500
1300.007812	143795.921875
1298.916016	142897.546875
1297.824219	142807.625000
1296.731445	143214.421875
1295.639648	142426.453125
1294.546875	142599.781250
1293.454102	143260.328125
1292.361328	142550.531250
1291.267578	142520.187500
1290.174805	142446.406250
1289.081055	142859.578125
1287.987305	142783.468750
1286.892578	141656.171875
1285.798828	142407.390625
1284.704102	141426.765625
1283.609375	142221.140625
1282.514648	142179.437500
1281.419922	142277.000000
1280.325195	141751.359375
1279.229492	142458.343750
1278.133789	141944.234375
1277.038086	141647.062500
1275.942383	141623.718750
1274.845703	141297.046875
1273.750000	142172.187500
1272.653320	141528.625000
1271.556641	142107.062500
1270.458984	141329.265625
1269.362305	141176.093750
1268.264648	141701.859375
1267.166992	140341.437500
1266.069336	140944.593750
1264.971680	141663.640625
1263.873047	140870.796875
1262.775391	141653.328125
1261.676758	140640.015625
1260.578125	141381.328125
1259.478516	140773.359375
1258.379883	141118.609375
1257.280273	140820.171875
1256.180664	141779.156250
1255.081055	141171.531250
1253.981445	140927.765625
1252.880859	141179.484375
1251.780273	140779.015625
1250.679688	141650.812500
1249.579102	140430.500000
1248.478516	141045.421875
1247.376953	141013.046875
1246.276367	140976.140625
1245.174805	140900.671875
1244.072266	141483.265625
1242.970703	140727.093750
1241.868164	140052.859375
1240.766602	140578.578125
1239.664062	140854.671875
1238.560547	140450.531250
1237.458008	139856.140625
1236.354492	140465.343750
1235.251953	141321.281250
1234.148438	140283.015625
1233.043945	140932.562500
1231.940430	140936.437500
1230.835938	140813.515625
1229.731445	140892.125000
1228.626953	140606.281250
1227.522461	141117.109375
1226.417969	141591.531250
1225.312500	140455.125000
1224.207031	140698.796875
1223.101562	140472.015625
1221.996094	140586.703125
1220.889648	140884.453125
1219.784180	139984.234375
1218.677734	140648.046875
1217.571289	140911.703125
1216.463867	140782.218750
1215.357422	140571.484375
1214.250000	140905.000000
1213.142578	140705.578125
1212.035156	140621.359375
1210.927734	140699.640625
1209.819336	140825.281250
1208.710938	141174.203125
1207.603516	141040.312500
1206.494141	141201.875000
1205.385742	140409.609375
1204.276367	141306.156250
1203.167969	140946.906250
1202.058594	140716.234375
1200.948242	141531.109375
1199.838867	141451.328125
1198.728516	141099.046875
1197.619141	141149.984375
1196.508789	140734.828125
1195.397461	140880.343750
1194.287109	141500.703125
1193.175781	141407.484375
1192.064453	141291.781250
1190.953125	141432.578125
1189.841797	140887.343750
1188.730469	141448.625000
1187.618164	140917.062500
1186.505859	141300.562500
1185.393555	141445.671875
1184.281250	141516.593750
1183.167969	140926.968750
1182.055664	140977.718750
1180.942383	141830.187500
1179.829102	141011.781250
1178.714844	141744.937500
1177.601562	141907.703125
1176.487305	141682.171875
1175.373047	141647.421875
1174.258789	141215.609375
1173.143555	141349.171875
1172.029297	140807.687500
1170.914062	140822.437500
1169.798828	141691.250000
1168.683594	141194.796875
1167.568359	140817.296875
1166.452148	140885.765625
1165.335938	141599.359375
1164.219727	141150.296875
1163.103516	140284.890625
1161.986328	141139.218750
1160.870117	140802.390625
1159.752930	140523.859375
1158.635742	140708.625000
1157.518555	140638.265625
1156.400391	141176.328125
1155.282227	140235.937500
1154.164062	140827.546875
1153.045898	140383.843750
1151.927734	140400.750000
1150.808594	139782.968750
1149.690430	140251.312500
1148.571289	140111.828125
1147.452148	142143.421875
1146.332031	144386.406250
1145.212891	140140.218750
1144.092773	140161.578125
1142.972656	140046.765625
1141.852539	140150.671875
1140.731445	139647.687500
1139.611328	139878.765625
1138.490234	140283.718750
1137.369141	139769.812500
1136.248047	139305.140625
1135.125977	139248.531250
1134.003906	139334.593750
1132.882812	140271.812500
1131.760742	140041.265625
1130.637695	139617.031250
1129.515625	139130.578125
1128.392578	139530.500000
1127.269531	139689.843750
1126.146484	138974.359375
1125.023438	139242.765625
1123.899414	138941.468750
1122.775391	139038.484375
1121.651367	139086.531250
1120.527344	139452.546875
1119.403320	138593.343750
1118.278320	138574.734375
1117.153320	139465.156250
1116.028320	138757.500000
1114.903320	138834.390625
1113.778320	138438.093750
1112.652344	139436.687500
1111.526367	139415.687500
1110.400391	138679.796875
1109.274414	139009.640625
1108.147461	138970.953125
1107.021484	138590.562500
1105.894531	139386.125000
1104.767578	139300.796875
1103.639648	139182.218750
1102.512695	138872.984375
1101.384766	137626.109375
1100.256836	139451.765625
1099.128906	138453.437500
1098.000000	138649.718750
1096.872070	139054.171875
1095.743164	138736.406250
1094.614258	139109.671875
1093.485352	138386.828125
1092.355469	138766.656250
1091.226562	138621.796875
1090.096680	139355.484375
1088.966797	138905.218750
1087.835938	139032.484375
1086.706055	139210.546875
1085.575195	138340.406250
1084.444336	138553.906250
1083.313477	138373.843750
1082.182617	139117.656250
1081.050781	138579.593750
1079.918945	139217.031250
1078.787109	139520.703125
1077.655273	139241.218750
1076.523438	139646.328125
1075.390625	138954.093750
1074.257812	139451.812500
1073.125000	139435.140625
1071.992188	138816.109375
1070.859375	139006.921875
1069.725586	139876.968750
1068.591797	139240.546875
1067.458008	139208.468750
1066.324219	139884.000000
1065.189453	139190.593750
1064.054688	138885.281250
1062.919922	139501.000000
1061.785156	138878.515625
1060.650391	139181.265625
1059.514648	139364.984375
1058.378906	139691.734375
1057.243164	140088.796875
1056.107422	141218.546875
1054.971680	141588.765625
1053.834961	140682.875000
1052.698242	140006.046875
1051.561523	139775.906250
1050.424805	140651.796875
1049.287109	139986.328125
1048.150391	139252.968750
1047.012695	139179.125000
1045.874023	139566.703125
1044.736328	139139.140625
1043.597656	138753.453125
1042.459961	138804.906250
1041.321289	139053.921875
1040.181641	139065.765625
1039.042969	138917.390625
1037.903320	139273.750000
1036.764648	139131.953125
1035.624023	138994.593750
1034.484375	139379.250000
1033.344727	138292.437500
1032.204102	139001.515625
1031.063477	139635.812500
1029.922852	138608.703125
1028.782227	138760.781250
1027.640625	139074.906250
1026.499023	139003.406250
1025.357422	138774.265625
1024.215820	139136.375000
1023.074219	138686.171875
1021.931641	138352.140625
1020.789062	138471.203125
1019.646484	138170.140625
1018.503906	138457.609375
1017.360352	138473.781250
1016.216797	138489.921875
1015.074219	138783.718750
1013.929688	139031.500000
1012.786133	138850.828125
1011.641602	139131.281250
1010.498047	138710.328125
1009.353516	138298.250000
1008.208008	139067.812500
1007.063477	138208.203125
1005.917969	138957.843750
1004.772461	138917.062500
1003.626953	138625.328125
1002.481445	139084.265625
1001.335938	138744.593750
1000.189453	138505.390625
999.042969	138974.984375
997.896484	138742.343750
996.749023	138823.687500
995.602539	138102.937500
994.455078	138393.546875
993.307617	138938.953125
992.160156	139092.062500
991.011719	138559.062500
989.864258	138868.953125
988.715820	138987.140625
987.567383	138741.765625
986.417969	138905.609375
985.269531	138647.281250
984.120117	139344.062500
982.970703	138648.531250
981.821289	138810.093750
980.670898	138873.734375
979.521484	138891.687500
978.371094	139163.937500
977.220703	138890.625000
976.070312	138645.656250
974.918945	138741.828125
973.768555	138670.703125
972.617188	139020.890625
971.464844	139446.921875
970.313477	139425.625000
969.162109	138894.312500
968.009766	139174.718750
966.857422	138517.812500
965.705078	139401.187500
964.551758	139074.109375
963.398438	139020.343750
962.246094	139395.828125
961.092773	138923.687500
959.938477	138694.421875
958.785156	138889.921875
957.630859	138944.515625
956.476562	139274.171875
955.322266	139404.453125
954.166992	138828.875000
953.012695	138883.421875
951.857422	138574.328125
950.702148	139403.578125
949.546875	139328.156250
948.390625	139081.875000
947.235352	139060.609375
946.079102	139169.062500
944.921875	138553.250000
943.765625	139152.421875
942.609375	139288.875000
941.452148	138355.734375
940.294922	139265.671875
939.137695	138680.609375
937.979492	138810.562500
936.821289	139039.765625
935.664062	138973.140625
934.504883	138505.093750
933.346680	138376.000000
932.188477	138538.203125
931.029297	138903.125000
929.870117	139112.625000
928.710938	139087.000000
927.550781	138815.593750
926.391602	138557.203125
925.231445	138648.046875
924.071289	138801.343750
922.910156	138530.171875
921.750000	139015.125000
920.588867	138339.125000
919.427734	138272.703125
918.266602	138240.765625
917.105469	138286.296875
915.943359	138049.906250
914.781250	138256.828125
913.619141	138011.906250
912.457031	138934.968750
911.294922	138178.203125
910.131836	137856.015625
908.968750	138258.375000
907.805664	137846.000000
906.642578	137661.562500
905.478516	138280.703125
904.314453	137874.984375
903.150391	137918.281250
901.986328	138444.671875
900.821289	137729.984375
899.657227	137919.218750
898.492188	137582.593750
897.327148	137703.093750
896.161133	137458.875000
894.996094	137757.375000
893.830078	137532.500000
892.664062	137890.906250
891.498047	136984.406250
890.331055	137092.000000
889.165039	137085.968750
887.998047	137624.125000
886.831055	137483.046875
885.663086	137751.062500
884.496094	137254.546875
883.328125	136997.984375
882.160156	137852.421875
880.992188	137655.750000
879.824219	136900.671875
878.655273	137842.359375
877.486328	137399.796875
876.317383	137686.640625
875.148438	137513.671875
873.978516	137663.546875
872.808594	137804.828125
871.638672	137877.656250
870.468750	137371.453125
869.298828	137976.234375
868.127930	137715.796875
866.957031	138019.187500
865.786133	137240.031250
864.615234	138335.296875
863.443359	138587.171875
862.272461	137921.406250
861.100586	137791.375000
859.927734	138092.234375
858.755859	138047.515625
857.583008	138738.406250
856.411133	138056.140625
855.237305	137977.328125
854.064453	138297.031250
852.891602	137553.421875
851.717773	138799.718750
850.543945	138179.812500
849.370117	138452.375000
848.195312	138469.343750
847.021484	139322.843750
845.846680	138203.140625
844.671875	138703.140625
843.496094	138458.343750
842.321289	138447.609375
841.145508	139011.078125
839.969727	139159.703125
838.793945	139031.890625
837.618164	138377.000000
836.441406	138551.140625
835.264648	138827.203125
834.087891	138926.828125
832.911133	139155.968750
831.733398	139327.687500
830.555664	138957.937500
829.377930	139513.843750
828.200195	138590.234375
827.022461	138142.296875
825.843750	139688.781250
824.665039	139230.187500
823.486328	139327.390625
822.307617	139732.015625
821.127930	138849.656250
819.949219	139042.234375
818.769531	139768.796875
817.588867	139895.453125
816.409180	139210.687500
815.228516	139142.515625
814.047852	139326.375000
812.867188	139783.281250
811.686523	139497.000000
810.504883	138592.796875
809.324219	139618.781250
808.142578	139520.968750
806.959961	139184.140625
805.778320	139613.031250
804.595703	140058.687500
803.413086	139087.687500
802.230469	139452.937500
801.047852	140156.171875
799.864258	139732.937500
798.680664	140019.671875
797.497070	139883.859375
796.313477	139760.765625
795.129883	139599.703125
793.945312	139438.703125
792.760742	140626.406250
791.576172	139684.484375
790.390625	139593.156250
789.206055	140115.687500
788.020508	140224.656250
786.834961	139445.843750
785.649414	139839.500000
784.462891	139109.515625
783.276367	139260.718750
782.089844	139614.125000
780.903320	139579.781250
779.716797	140046.734375
778.529297	139020.421875
777.341797	138628.250000
776.154297	139092.984375
774.966797	138768.281250
773.778320	139594.750000
772.590820	139690.843750
771.402344	139576.546875
770.212891	139087.921875
769.024414	139270.250000
767.834961	139071.984375
766.645508	139325.703125
765.456055	139949.203125
764.266602	138759.125000
763.076172	139554.750000
761.886719	139385.984375
760.696289	139213.062500
759.504883	139185.093750
758.314453	139919.140625
757.123047	138862.593750
755.931641	139653.078125
754.740234	139604.031250
753.548828	139290.687500
752.356445	139080.218750
751.164062	139681.328125
749.971680	139783.234375
748.779297	139130.484375
747.585938	139309.984375
746.392578	138992.812500
745.199219	139172.265625
744.005859	139571.578125
742.812500	139581.203125
741.618164	139582.453125
740.423828	139602.531250
739.229492	139000.968750
738.035156	138866.281250
736.839844	139292.359375
735.644531	139385.671875
734.449219	139945.328125
733.253906	139829.359375
732.058594	139303.656250
730.862305	139405.234375
729.666016	139502.578125
728.469727	139424.359375
727.272461	138692.281250
726.076172	139046.593750
724.878906	139242.062500
723.681641	139393.609375
722.484375	139710.000000
721.286133	139281.156250
720.087891	139866.640625
718.889648	139346.109375
717.691406	139729.000000
716.493164	139340.062500
715.293945	139956.359375
714.094727	140280.531250
712.895508	139806.218750
711.695312	139423.796875
710.496094	139741.609375
709.295898	139542.656250
708.095703	139577.046875
706.895508	139734.281250
705.694336	139722.812500
704.493164	140327.531250
703.291992	139830.984375
702.090820	139355.421875
700.889648	140265.687500
699.687500	140050.234375
698.485352	140084.421875
697.283203	140156.031250
696.081055	139716.171875
694.877930	139976.953125
693.674805	140757.203125
692.471680	140014.078125
691.268555	140139.609375
690.065430	139646.125000
688.861328	139914.953125
687.657227	140021.734375
686.453125	140450.218750
685.248047	140206.078125
684.043945	140310.640625
682.838867	140427.609375
681.633789	139285.390625
680.427734	140057.875000
679.222656	139594.203125
678.016602	140666.937500
676.810547	139510.984375
675.604492	140649.640625
674.397461	140496.984375
673.190430	140062.625000
671.983398	139558.000000
670.776367	140323.015625
669.569336	140081.468750
668.361328	140471.390625
667.153320	140238.187500
665.945312	140272.000000
664.737305	140326.468750
663.528320	140002.390625
662.319336	140509.812500
661.110352	139987.281250
659.901367	139806.062500
658.692383	139872.953125
657.482422	139505.812500
656.272461	139519.000000
655.062500	139610.671875
653.851562	140148.453125
652.641602	140277.125000
651.430664	139811.125000
650.219727	139522.812500
649.007812	139335.734375
647.796875	139169.359375
646.584961	139931.453125
645.373047	139379.281250
644.161133	139712.062500
642.948242	139502.421875
641.735352	139777.312500
640.522461	139318.312500
639.309570	139986.750000
638.096680	139783.359375
636.882812	139856.093750
635.668945	139436.515625
634.455078	138988.265625
633.241211	139719.937500
632.026367	138701.578125
630.811523	139079.015625
629.596680	139244.359375
628.381836	139271.781250
627.166016	139130.515625
625.950195	138800.093750
624.734375	138685.687500
623.518555	139549.890625
622.302734	138783.796875
621.085938	138523.531250
619.869141	138540.734375
618.652344	139445.390625
617.435547	139084.484375
616.217773	139189.859375
615.000000	138818.859375
613.782227	139379.937500
612.564453	139072.656250
611.345703	138907.062500
610.126953	138737.421875
608.908203	138360.656250
607.689453	138839.234375
606.469727	138821.421875
605.250977	138555.546875
604.031250	139349.453125
602.810547	138979.046875
601.590820	138989.875000
600.370117	138953.578125
599.149414	139034.031250
597.928711	138854.375000
596.708008	139248.046875
595.486328	139156.437500
594.264648	139118.062500
593.042969	138936.453125
591.821289	139667.359375
590.598633	139070.484375
589.376953	139048.484375
588.154297	139149.171875
586.930664	139491.046875
585.708008	139282.968750
584.484375	139589.921875
583.260742	139226.609375
582.037109	138851.171875
580.813477	139799.328125
579.588867	139572.984375
578.364258	139287.500000
577.139648	139420.578125
575.914062	139667.875000
574.689453	139331.500000
573.463867	139393.062500
572.238281	139450.531250
571.012695	139289.750000
569.786133	139771.281250
568.559570	139991.703125
567.333008	138997.281250
566.106445	139851.500000
564.878906	139529.812500
563.652344	139075.828125
562.424805	139595.531250
561.197266	139630.390625
559.968750	138901.781250
558.740234	139160.656250
557.512695	139246.437500
556.283203	139108.359375
555.054688	139808.484375
553.825195	139308.296875
552.595703	139416.328125
551.366211	138879.796875
550.136719	139363.921875
548.906250	139016.593750
547.676758	138340.203125
546.446289	139106.546875
545.214844	138554.296875
543.984375	138548.546875
542.752930	138733.671875
541.521484	138070.125000
540.290039	138868.234375
539.057617	138712.234375
537.826172	137809.625000
536.593750	138434.875000
535.361328	137475.859375
534.127930	138309.796875
532.894531	137778.937500
531.662109	137675.984375
530.427734	137639.937500
529.194336	137820.734375
527.959961	136949.968750
526.726562	137209.812500
525.492188	136546.046875
524.256836	137486.171875
523.022461	137267.984375
521.787109	136750.296875
520.551758	137094.875000
519.316406	136945.640625
518.080078	136885.468750
516.843750	137219.703125
515.607422	137064.453125
514.371094	137333.812500
513.134766	136741.968750
511.897461	136790.984375
510.660156	136298.453125
509.422852	137179.875000
508.184570	136093.609375
506.947266	136607.156250
505.708984	136821.703125
504.470703	136701.031250
503.231445	136523.906250
501.993164	136748.406250
500.753906	136660.078125
499.514648	136840.078125
498.274414	137274.125000
497.035156	136945.781250
495.794922	136075.250000
494.554688	137113.859375
493.314453	136495.515625
492.073242	136618.890625
490.832031	137002.078125
489.590820	136790.937500
488.349609	137292.750000
487.108398	137085.656250
485.866211	136876.609375
484.624023	137263.390625
483.381836	136820.953125
482.138672	136133.234375
480.896484	136964.453125
479.653320	136906.437500
478.410156	137507.953125
477.166016	137248.796875
475.921875	136913.375000
474.678711	137781.796875
473.433594	137378.062500
472.189453	137020.671875
470.944336	137278.000000
469.700195	136533.203125
468.455078	136573.671875
467.208984	137107.937500
465.963867	137070.015625
464.717773	136416.078125
463.471680	136683.218750
462.224609	136410.687500
460.978516	136304.718750
459.731445	137459.937500
458.484375	136822.562500
457.237305	137055.265625
455.989258	136550.437500
454.742188	136300.250000
453.494141	136510.875000
452.245117	136372.921875
450.997070	136152.921875
449.748047	136269.328125
448.499023	136365.687500
447.250000	136377.937500
446.000977	135889.953125
444.750977	135624.203125
443.500977	135860.593750
442.250977	134929.015625
441.000000	135487.328125
439.750000	135173.859375
438.499023	134692.609375
437.248047	135334.562500
435.996094	134867.437500
434.745117	135329.312500
433.493164	134361.093750
432.241211	134870.796875
430.989258	134991.015625
429.736328	134745.921875
428.483398	134243.484375
427.230469	134457.515625
425.977539	134080.984375
424.723633	134322.875000
423.469727	134445.015625
422.215820	134108.562500
420.961914	133911.750000
419.708008	133748.890625
418.453125	133691.703125
417.198242	134096.703125
415.942383	133890.062500
414.687500	133685.484375
413.431641	133713.937500
412.175781	133678.656250
410.919922	133983.734375
409.664062	133733.500000
408.407227	133674.359375
407.150391	133826.078125
405.893555	133689.359375
404.635742	133580.515625
403.378906	133610.890625
402.121094	133315.250000
400.862305	133560.265625
399.604492	133439.578125
398.345703	133495.750000
397.086914	133299.640625
395.828125	133846.296875
394.569336	133229.265625
393.309570	133424.359375
392.049805	133470.515625
390.790039	133518.640625
389.530273	133382.218750
388.269531	133378.765625
387.008789	133512.125000
385.748047	133413.453125
384.487305	132829.109375
383.225586	133773.140625
381.963867	132618.218750
380.702148	133244.906250
379.440430	132694.703125
378.177734	132526.937500
376.915039	132743.375000
375.652344	132785.500000
374.389648	132904.796875
373.126953	132574.812500
371.863281	132037.187500
370.599609	132617.484375
369.334961	132356.953125
368.071289	132300.187500
366.806641	132126.796875
365.541992	132085.906250
364.277344	131740.656250
363.011719	131978.453125
361.746094	131726.203125
360.480469	131503.671875
359.214844	131245.656250
357.949219	131013.414062
356.682617	131551.171875
355.416016	131658.421875
354.149414	131674.859375
352.881836	131107.281250
351.614258	131277.656250
350.346680	131304.000000
349.079102	129902.671875
347.811523	131191.031250
346.542969	131022.210938
345.274414	131178.625000
344.005859	131346.796875
342.736328	130328.945312
341.466797	130717.804688
340.197266	130631.914062
338.927734	129687.601562
337.658203	129859.804688
336.387695	130014.218750
335.117188	129593.976562
333.846680	129221.109375
332.575195	129206.375000
331.304688	129439.437500
330.033203	129119.882812
328.761719	128845.656250
327.489258	129068.804688
326.216797	129441.218750
324.944336	128768.218750
323.671875	128421.562500
322.399414	128619.070312
321.125977	128317.718750
319.852539	127786.773438
318.579102	128076.531250
317.305664	127950.101562
316.031250	128106.273438
314.756836	128648.851562
313.482422	128110.476562
312.207031	128362.601562
310.932617	127598.984375
309.657227	127790.328125
308.381836	128112.906250
307.105469	127874.929688
305.830078	128097.437500
304.553711	127023.117188
303.277344	127043.976562
302.000000	127740.351562
300.722656	126619.710938
299.446289	127709.312500
298.167969	126692.812500
296.890625	126778.242188
295.612305	126429.359375
294.333984	127146.531250
293.055664	126809.437500
291.777344	126572.164062
290.498047	126131.695312
289.218750	125552.625000
287.939453	125694.781250
286.660156	125735.296875
285.379883	125115.593750
284.099609	125630.734375
282.819336	125329.531250
281.539062	125694.109375
280.257812	125672.093750
278.976562	124081.187500
277.695312	124599.898438
276.413086	124890.187500
275.131836	124394.414062
273.849609	124310.242188
272.567383	124302.125000
271.284180	124251.125000
270.001953	123707.101562
268.718750	123728.320312
267.435547	124076.781250
266.151367	124516.648438
264.868164	124027.492188
263.583984	124270.546875
262.298828	124225.414062
261.014648	125456.976562
259.729492	125232.617188
258.444336	126442.101562
257.159180	126840.039062
255.874023	127622.867188
254.587891	127596.554688
253.301758	126819.890625
252.015625	125557.632812
250.729492	124503.765625
249.442383	124186.625000
248.155273	123723.914062
246.868164	123616.773438
245.581055	122870.851562
244.292969	122274.687500
243.004883	122127.101562
241.716797	121364.406250
240.427734	121607.031250
239.139648	121351.015625
237.850586	121626.500000
236.560547	121983.328125
235.271484	121081.765625
233.981445	121039.242188
232.691406	121085.875000
231.401367	120303.179688
230.111328	120723.812500
228.820312	120189.390625
227.529297	120640.859375
226.238281	119752.335938
224.946289	119820.421875
223.655273	119853.632812
222.363281	118894.156250
221.070312	118790.156250
219.778320	119092.398438
218.485352	118928.445312
217.192383	118818.679688
215.899414	117985.945312
214.605469	118740.367188
213.312500	118139.843750
212.018555	118383.867188
210.723633	117831.921875
209.429688	117755.296875
208.134766	116776.937500
206.839844	116681.218750
205.544922	116446.562500
204.249023	116260.234375
202.954102	116172.375000
201.658203	116246.585938
200.361328	116064.242188
199.065430	116043.945312
197.768555	115445.250000
196.471680	115905.054688
195.174805	114462.460938
193.876953	114560.000000
192.579102	114734.562500
191.281250	114121.257812
189.983398	114257.304688
188.684570	114535.781250
187.385742	114007.546875
186.086914	113371.726562
184.788086	113625.179688
183.488281	113293.656250
182.188477	113508.539062
180.888672	113352.156250
179.588867	113465.031250
178.288086	113410.601562
176.988281	112962.148438
175.686523	113507.406250
174.385742	113247.398438
173.083984	113438.914062
171.782227	113121.382812
170.480469	113143.851562
169.178711	113235.429688
167.875977	112735.750000
166.573242	112735.234375
165.270508	112391.257812
163.967773	112371.617188
162.664062	111949.179688
161.360352	112213.437500
160.056641	111706.828125
158.751953	111464.945312
157.448242	111407.140625
156.143555	110768.734375
154.838867	110826.023438
153.533203	110404.421875
152.227539	110147.664062
150.921875	109724.429688
149.616211	110185.781250
148.310547	109425.820312
147.003906	109094.804688
145.697266	109703.320312
144.390625	109121.773438
143.083008	109221.304688
141.775391	109192.679688
140.467773	109555.984375
139.160156	108877.406250
137.851562	108816.359375
136.542969	107845.828125
135.234375	107506.085938
133.925781	106713.804688
132.616211	105068.226562
131.307617	104946.843750
129.998047	103367.132812
128.687500	102246.062500
127.377930	100921.242188
126.067383	99541.609375
124.756836	97679.921875
123.445312	95992.492188
122.133789	94156.976562
120.823242	91857.031250
119.510742	88292.429688
