#Wave		#Intensity
1999.091797	76513.304688
1998.124023	77146.226562
1997.156250	76771.171875
1996.187500	76858.507812
1995.219727	77000.031250
1994.250977	77156.992188
1993.282227	77381.007812
1992.313477	77155.906250
1991.344727	77387.570312
1990.375977	77441.148438
1989.406250	77022.703125
1988.437500	77068.585938
1987.467773	77294.937500
1986.498047	77247.945312
1985.528320	77162.304688
1984.557617	77202.968750
1983.587891	77493.539062
1982.617188	77765.976562
1981.646484	76858.648438
1980.675781	77669.320312
1979.705078	77460.085938
1978.733398	77310.132812
1977.762695	77693.031250
1976.791016	77429.851562
1975.819336	77503.820312
1974.847656	77140.437500
1973.875000	77983.484375
1972.903320	77447.828125
1971.930664	77881.703125
1970.958984	77269.132812
1969.986328	77312.187500
1969.012695	77905.187500
1968.040039	78179.359375
1967.066406	77880.562500
1966.093750	78090.429688
1965.120117	77909.867188
1964.146484	77693.429688
1963.172852	77636.218750
1962.198242	77525.132812
1961.224609	77506.460938
1960.250000	77906.031250
1959.275391	77953.992188
1958.300781	78230.218750
1957.326172	78083.203125
1956.350586	77861.882812
1955.375977	77681.648438
1954.400391	78511.351562
1953.424805	77639.140625
1952.449219	77925.359375
1951.473633	77343.031250
1950.497070	78000.593750
1949.520508	78284.031250
1948.544922	79043.609375
1947.568359	78100.515625
1946.590820	78365.859375
1945.614258	78211.414062
1944.637695	78468.968750
1943.660156	78089.429688
1942.682617	78375.039062
1941.705078	78548.031250
1940.727539	78076.617188
1939.749023	78004.179688
1938.771484	78399.500000
1937.792969	78107.242188
1936.814453	78093.585938
1935.835938	78154.015625
1934.857422	78497.937500
1933.877930	78172.656250
1932.899414	78804.976562
1931.919922	78257.648438
1930.940430	78014.250000
1929.960938	78317.046875
1928.980469	78413.070312
1928.000977	78863.648438
1927.020508	78500.421875
1926.040039	77912.898438
1925.059570	78047.156250
1924.079102	78966.539062
1923.098633	78386.882812
1922.117188	78436.882812
1921.135742	78491.953125
1920.155273	78236.210938
1919.172852	78286.195312
1918.191406	78432.929688
1917.209961	78533.781250
1916.227539	78262.921875
1915.245117	78435.031250
1914.262695	78635.070312
1913.280273	78532.250000
1912.297852	78515.960938
1911.314453	78797.265625
1910.332031	78165.515625
1909.348633	78126.406250
1908.365234	77960.195312
1907.381836	78604.851562
1906.397461	78336.960938
1905.414062	78376.601562
1904.429688	78251.101562
1903.445312	78585.367188
1902.460938	78795.078125
1901.476562	78265.859375
1900.491211	78602.476562
1899.506836	78339.968750
1898.521484	77897.375000
1897.536133	78205.960938
1896.550781	78489.070312
1895.565430	78754.320312
1894.579102	78372.812500
1893.592773	78843.359375
1892.607422	78672.375000
1891.621094	78498.914062
1890.633789	78748.710938
1889.647461	78190.164062
1888.660156	78363.921875
1887.673828	78423.640625
1886.686523	78336.453125
1885.699219	78456.914062
1884.710938	78729.226562
1883.723633	78310.453125
1882.735352	77965.218750
1881.748047	78356.375000
1880.759766	78896.648438
1879.770508	79026.984375
1878.782227	78891.742188
1877.793945	78225.585938
1876.804688	78985.421875
1875.815430	78708.710938
1874.826172	78955.195312
1873.836914	78772.062500
1872.846680	79079.070312
1871.857422	78287.281250
1870.867188	78872.039062
1869.876953	78815.281250
1868.886719	78677.757812
1867.896484	78974.398438
1866.905273	78443.226562
1865.915039	79241.890625
1864.923828	78635.171875
1863.932617	79009.789062
1862.941406	78756.359375
1861.949219	78586.218750
1860.958008	78764.015625
1859.965820	78641.812500
1858.973633	79076.562500
1857.981445	78949.304688
1856.989258	79051.328125
1855.997070	78647.062500
1855.003906	79250.210938
1854.010742	78780.585938
1853.017578	79048.695312
1852.024414	79125.421875
1851.031250	78890.085938
1850.037109	79578.195312
1849.043945	79342.851562
1848.049805	79052.257812
1847.055664	79128.898438
1846.060547	79268.367188
1845.066406	79475.656250
1844.072266	78928.875000
1843.077148	79369.843750
1842.082031	79129.781250
1841.086914	79437.414062
1840.090820	79350.625000
1839.095703	79349.242188
1838.099609	79865.054688
1837.104492	79283.703125
1836.108398	79332.515625
1835.111328	79637.265625
1834.115234	79387.429688
1833.119141	79132.664062
1832.122070	79166.414062
1831.125000	79613.898438
1830.127930	79544.742188
1829.130859	79568.367188
1828.132812	79481.695312
1827.135742	79572.968750
1826.137695	79872.148438
1825.139648	79499.898438
1824.141602	79788.968750
1823.142578	79559.585938
1822.144531	79645.742188
1821.145508	79501.570312
1820.146484	79890.531250
1819.147461	79521.156250
1818.148438	80175.171875
1817.148438	79938.437500
1816.149414	79674.281250
1815.149414	79572.742188
1814.149414	80181.273438
1813.149414	79214.796875
1812.149414	79503.265625
1811.148438	80263.906250
1810.148438	79802.578125
1809.147461	79248.984375
1808.146484	79342.429688
1807.144531	78973.890625
1806.143555	80016.046875
1805.142578	79954.539062
1804.140625	80399.679688
1803.138672	79781.671875
1802.136719	80311.500000
1801.133789	79466.726562
1800.131836	80148.554688
1799.128906	80346.398438
1798.125977	80008.148438
1797.123047	79383.359375
1796.120117	80097.109375
1795.117188	79856.257812
1794.113281	80308.070312
1793.110352	80184.328125
1792.106445	80093.007812
1791.101562	79914.554688
1790.097656	79818.328125
1789.093750	79846.578125
1788.088867	79807.632812
1787.083984	80388.265625
1786.079102	80142.734375
1785.074219	79688.351562
1784.069336	79301.265625
1783.063477	80244.601562
1782.057617	79457.289062
1781.051758	80166.609375
1780.045898	80065.500000
1779.040039	79748.250000
1778.034180	79920.515625
1777.027344	79538.820312
1776.020508	79832.742188
1775.013672	79751.632812
1774.006836	79864.187500
1773.000000	80038.750000
1771.992188	79175.898438
1770.984375	79774.812500
1769.976562	79914.554688
1768.968750	80039.367188
1767.960938	79432.546875
1766.953125	79512.757812
1765.944336	79773.914062
1764.935547	79754.890625
1763.926758	79911.812500
1762.917969	79516.148438
1761.908203	79279.164062
1760.899414	79143.812500
1759.889648	79803.445312
1758.879883	79479.859375
1757.870117	79899.062500
1756.860352	80035.953125
1755.849609	79346.234375
1754.839844	79950.804688
1753.829102	79575.515625
1752.818359	80414.789062
1751.807617	79401.523438
1750.795898	79441.906250
1749.785156	79662.734375
1748.773438	79480.601562
1747.761719	79735.929688
1746.750000	79674.914062
1745.738281	79969.640625
1744.725586	79792.507812
1743.712891	79669.765625
1742.701172	80270.484375
1741.688477	79493.515625
1740.674805	79654.718750
1739.662109	79613.507812
1738.648438	79811.632812
1737.635742	79943.078125
1736.622070	79894.429688
1735.608398	79596.734375
1734.593750	79205.445312
1733.580078	79149.546875
1732.565430	79056.695312
1731.550781	79636.609375
1730.536133	79891.093750
1729.521484	79583.835938
1728.506836	79385.054688
1727.491211	79865.992188
1726.475586	79430.867188
1725.459961	80389.171875
1724.444336	80123.921875
1723.428711	79691.429688
1722.412109	79497.742188
1721.396484	79289.359375
1720.379883	79818.882812
1719.363281	79298.218750
1718.345703	79861.960938
1717.329102	79447.164062
1716.311523	79774.742188
1715.293945	79320.781250
1714.276367	79930.796875
1713.258789	79118.328125
1712.241211	79998.312500
1711.222656	80011.171875
1710.205078	79307.140625
1709.186523	79725.132812
1708.167969	80162.609375
1707.148438	80015.929688
1706.129883	79815.320312
1705.110352	80225.554688
1704.090820	79858.203125
1703.071289	80150.578125
1702.051758	79984.398438
1701.032227	79681.007812
1700.011719	80279.593750
1698.991211	80260.484375
1697.971680	80091.937500
1696.950195	79916.101562
1695.929688	79747.671875
1694.909180	79811.906250
1693.887695	80289.859375
1692.866211	79306.351562
1691.844727	79889.445312
1690.823242	80337.757812
1689.800781	80171.859375
1688.779297	79876.375000
1687.756836	80114.125000
1686.734375	79840.757812
1685.711914	79222.773438
1684.688477	80401.546875
1683.666016	80003.625000
1682.642578	79994.343750
1681.619141	79652.820312
1680.595703	79882.960938
1679.572266	80166.750000
1678.547852	80133.015625
1677.524414	80685.179688
1676.500000	79887.390625
1675.475586	79558.429688
1674.451172	80298.273438
1673.425781	80279.164062
1672.401367	79882.000000
1671.375977	79828.828125
1670.350586	79565.984375
1669.325195	80112.570312
1668.299805	80110.554688
1667.273438	80013.500000
1666.247070	79721.562500
1665.220703	80340.804688
1664.194336	80058.640625
1663.167969	80080.976562
1662.141602	79901.210938
1661.114258	79818.882812
1660.086914	79734.148438
1659.059570	79625.101562
1658.032227	79873.750000
1657.004883	79874.179688
1655.976562	79728.679688
1654.948242	79682.921875
1653.919922	80079.679688
1652.891602	78847.609375
1651.863281	79414.500000
1650.833984	79655.562500
1649.805664	79925.687500
1648.776367	79160.898438
1647.747070	79960.476562
1646.717773	79526.195312
1645.687500	79764.578125
1644.658203	79267.367188
1643.627930	79464.445312
1642.597656	78901.937500
1641.567383	79208.187500
1640.536133	79710.796875
1639.505859	78966.648438
1638.474609	79102.968750
1637.443359	78919.218750
1636.412109	79377.882812
1635.380859	79424.375000
1634.348633	79025.000000
1633.316406	78887.406250
1632.285156	78774.085938
1631.252930	79266.257812
1630.219727	79286.085938
1629.187500	79368.835938
1628.154297	78761.710938
1627.121094	79253.523438
1626.087891	79283.000000
1625.054688	79394.718750
1624.021484	79087.937500
1622.987305	79027.937500
1621.954102	78682.632812
1620.919922	78934.578125
1619.885742	79012.406250
1618.850586	78730.117188
1617.816406	78530.070312
1616.781250	78847.085938
1615.746094	78470.765625
1614.710938	78790.078125
1613.675781	78701.226562
1612.639648	78776.554688
1611.604492	78767.382812
1610.568359	78405.875000
1609.532227	78350.914062
1608.496094	78679.539062
1607.458984	78532.890625
1606.422852	78338.070312
1605.385742	78558.007812
1604.348633	78575.382812
1603.311523	78821.710938
1602.274414	78164.273438
1601.236328	78996.062500
1600.198242	78505.039062
1599.160156	78768.054688
1598.122070	78407.281250
1597.083984	79026.546875
1596.045898	78851.203125
1595.006836	78526.695312
1593.967773	78074.765625
1592.928711	78368.828125
1591.889648	78333.234375
1590.849609	78514.109375
1589.810547	78581.890625
1588.770508	78721.781250
1587.730469	78919.304688
1586.690430	78813.921875
1585.650391	78328.921875
1584.609375	79134.234375
1583.568359	79045.679688
1582.527344	78829.867188
1581.486328	78448.445312
1580.445312	78626.539062
1579.403320	78516.523438
1578.362305	78176.148438
1577.320312	78661.328125
1576.278320	78786.468750
1575.236328	78621.320312
1574.193359	79262.039062
1573.150391	78806.718750
1572.108398	78946.117188
1571.065430	78946.437500
1570.021484	78951.539062
1568.978516	79270.539062
1567.934570	79366.609375
1566.891602	79069.828125
1565.847656	78991.078125
1564.803711	78601.085938
1563.758789	78955.750000
1562.714844	79125.984375
1561.669922	79025.726562
1560.625000	79116.921875
1559.580078	79028.656250
1558.535156	79043.273438
1557.489258	79036.351562
1556.443359	79533.937500
1555.398438	79220.937500
1554.351562	78915.210938
1553.305664	79030.187500
1552.259766	78848.843750
1551.212891	79054.562500
1550.166016	79124.054688
1549.119141	79114.718750
1548.072266	79079.125000
1547.025391	79186.765625
1545.977539	79413.695312
1544.929688	79106.015625
1543.881836	79397.296875
1542.833984	79729.023438
1541.786133	79156.703125
1540.737305	79414.421875
1539.688477	79469.398438
1538.639648	79004.687500
1537.590820	79455.335938
1536.541992	79047.976562
1535.493164	79267.351562
1534.443359	79072.171875
1533.393555	78948.500000
1532.343750	79065.375000
1531.293945	79027.453125
1530.243164	79291.843750
1529.192383	78354.281250
1528.142578	79301.609375
1527.091797	79166.117188
1526.040039	78990.234375
1524.989258	79056.984375
1523.937500	79423.312500
1522.885742	78890.867188
1521.833984	78517.851562
1520.782227	78556.117188
1519.730469	78817.710938
1518.677734	78437.773438
1517.625000	78905.945312
1516.572266	78813.476562
1515.519531	79198.296875
1514.466797	78970.484375
1513.413086	78690.539062
1512.360352	78880.570312
1511.306641	78674.281250
1510.252930	78169.156250
1509.198242	79272.335938
1508.144531	78243.195312
1507.089844	78720.007812
1506.035156	78414.351562
1504.980469	78639.726562
1503.925781	78459.781250
1502.870117	78542.898438
1501.815430	78997.898438
1500.759766	77972.437500
1499.704102	78287.656250
1498.647461	78197.890625
1497.591797	78226.515625
1496.535156	78129.687500
1495.479492	78146.476562
1494.421875	78520.515625
1493.365234	78336.156250
1492.308594	77759.250000
1491.250977	77993.632812
1490.193359	78012.781250
1489.135742	78700.875000
1488.078125	78549.718750
1487.020508	78774.320312
1485.961914	78519.250000
1484.904297	78115.445312
1483.845703	77277.234375
1482.786133	78281.117188
1481.727539	78311.960938
1480.668945	78633.125000
1479.609375	78279.210938
1478.549805	77236.421875
1477.490234	78227.601562
1476.429688	78086.218750
1475.370117	77987.343750
1474.309570	77855.484375
1473.249023	77643.515625
1472.188477	77969.031250
1471.127930	77860.804688
1470.066406	77604.171875
1469.005859	77604.406250
1467.944336	77550.460938
1466.882812	77242.203125
1465.820312	77828.773438
1464.758789	77956.078125
1463.696289	77363.109375
1462.633789	77492.796875
1461.571289	77707.140625
1460.508789	77721.445312
1459.446289	77434.687500
1458.382812	77599.531250
1457.319336	77592.679688
1456.255859	77527.054688
1455.192383	78175.953125
1454.128906	77414.671875
1453.064453	77316.218750
1452.000000	77335.250000
1450.935547	77607.914062
1449.871094	77504.773438
1448.806641	77319.484375
1447.741211	77007.507812
1446.675781	77723.601562
1445.610352	77209.859375
1444.544922	77716.843750
1443.479492	77144.632812
1442.413086	76807.156250
1441.346680	77386.625000
1440.280273	77178.156250
1439.213867	77747.968750
1438.147461	76773.156250
1437.080078	77448.273438
1436.013672	76710.476562
1434.946289	77600.843750
1433.878906	76879.671875
1432.810547	77357.585938
1431.743164	77175.148438
1430.674805	76924.890625
1429.606445	77021.078125
1428.538086	77124.242188
1427.469727	77208.656250
1426.400391	77393.609375
1425.331055	77307.226562
1424.262695	77447.664062
1423.192383	76545.437500
1422.123047	76844.882812
1421.053711	76686.203125
1419.983398	77139.726562
1418.913086	76623.625000
1417.842773	76922.835938
1416.772461	77086.500000
1415.701172	76645.390625
1414.630859	76449.546875
1413.559570	77469.742188
1412.488281	77168.812500
1411.416016	77301.929688
1410.344727	76793.523438
1409.272461	76842.695312
1408.200195	76446.468750
1407.127930	76978.281250
1406.055664	76929.484375
1404.983398	76719.898438
1403.910156	76738.734375
1402.836914	76391.789062
1401.763672	76881.195312
1400.690430	76394.609375
1399.617188	76504.289062
1398.542969	76506.828125
1397.468750	76704.890625
1396.394531	76369.945312
1395.320312	76544.687500
1394.245117	76677.492188
1393.170898	76682.312500
1392.095703	76505.734375
1391.020508	76252.484375
1389.945312	76410.804688
1388.869141	76513.273438
1387.793945	76343.812500
1386.717773	76323.117188
1385.641602	76244.343750
1384.565430	75775.390625
1383.488281	75891.804688
1382.412109	76052.281250
1381.334961	76196.453125
1380.257812	75908.875000
1379.180664	75472.875000
1378.102539	76153.007812
1377.025391	76051.156250
1375.947266	76118.648438
1374.869141	75657.406250
1373.791016	76012.421875
1372.711914	75836.476562
1371.633789	76082.398438
1370.554688	76346.765625
1369.475586	76015.625000
1368.396484	76161.765625
1367.316406	76363.437500
1366.237305	76305.695312
1365.157227	76148.414062
1364.077148	75789.812500
1362.997070	75542.421875
1361.916016	75528.820312
1360.835938	75797.453125
1359.754883	75638.085938
1358.673828	75150.375000
1357.592773	75393.492188
1356.511719	75879.250000
1355.429688	76228.460938
1354.347656	75842.671875
1353.265625	75648.781250
1352.183594	75290.945312
1351.101562	75649.242188
1350.018555	75434.703125
1348.935547	75504.226562
1347.852539	75287.476562
1346.769531	75920.148438
1345.686523	75405.710938
1344.602539	75650.523438
1343.519531	75371.609375
1342.435547	75309.585938
1341.350586	75302.929688
1340.266602	75538.351562
1339.181641	75400.250000
1338.097656	75499.585938
1337.012695	75502.101562
1335.926758	75804.117188
1334.841797	75131.656250
1333.756836	75468.164062
1332.670898	75608.828125
1331.584961	75450.156250
1330.499023	75022.218750
1329.412109	75565.617188
1328.326172	75347.203125
1327.239258	74818.281250
1326.152344	75563.828125
1325.065430	75343.218750
1323.977539	75118.085938
1322.890625	75624.078125
1321.802734	74532.445312
1320.714844	75105.000000
1319.626953	74795.046875
1318.538086	75107.750000
1317.450195	75220.515625
1316.361328	75007.156250
1315.272461	75319.640625
1314.183594	75301.453125
1313.093750	75336.054688
1312.004883	74645.500000
1310.915039	74684.789062
1309.825195	74685.070312
1308.735352	74712.859375
1307.644531	74862.179688
1306.554688	75052.703125
1305.463867	75110.203125
1304.373047	74079.062500
1303.282227	74996.000000
1302.190430	74189.757812
1301.099609	74939.125000
1300.007812	74804.203125
1298.916016	74335.023438
1297.824219	74582.578125
1296.731445	73914.460938
1295.639648	74434.328125
1294.546875	74523.843750
1293.454102	74503.507812
1292.361328	74858.296875
1291.267578	74181.570312
1290.174805	73891.500000
1289.081055	74202.757812
1287.987305	74093.351562
1286.892578	74187.359375
1285.798828	74393.281250
1284.704102	74176.523438
1283.609375	74172.242188
1282.514648	74094.890625
1281.419922	74031.257812
1280.325195	73842.101562
1279.229492	73666.695312
1278.133789	73895.257812
1277.038086	73745.000000
1275.942383	73695.156250
1274.845703	73957.789062
1273.750000	74309.250000
1272.653320	73345.101562
1271.556641	73951.835938
1270.458984	73813.109375
1269.362305	73412.390625
1268.264648	73692.992188
1267.166992	73376.703125
1266.069336	73329.265625
1264.971680	73092.843750
1263.873047	73293.609375
1262.775391	73273.515625
1261.676758	73681.257812
1260.578125	73756.656250
1259.478516	73076.750000
1258.379883	73395.593750
1257.280273	72975.242188
1256.180664	73287.164062
1255.081055	73137.492188
1253.981445	73419.718750
1252.880859	73070.101562
1251.780273	73547.625000
1250.679688	73075.429688
1249.579102	72655.648438
1248.478516	73176.125000
1247.376953	73228.703125
1246.276367	72908.992188
1245.174805	73188.554688
1244.072266	73045.945312
1242.970703	72426.960938
1241.868164	72862.960938
1240.766602	73394.054688
1239.664062	73101.843750
1238.560547	73136.203125
1237.458008	73161.484375
1236.354492	72864.937500
1235.251953	72901.570312
1234.148438	72587.054688
1233.043945	72974.804688
1231.940430	73061.210938
1230.835938	72547.570312
1229.731445	73084.523438
1228.626953	73039.578125
1227.522461	72836.242188
1226.417969	73065.125000
1225.312500	72275.953125
1224.207031	72769.468750
1223.101562	72417.070312
1221.996094	72865.156250
1220.889648	73053.125000
1219.784180	72370.875000
1218.677734	72366.789062
1217.571289	73013.367188
1216.463867	73185.343750
1215.357422	72808.445312
1214.250000	72686.843750
1213.142578	72666.882812
1212.035156	72999.046875
1210.927734	72423.843750
1209.819336	72631.828125
1208.710938	72526.140625
1207.603516	73022.742188
1206.494141	72946.335938
1205.385742	72723.398438
1204.276367	72520.820312
1203.167969	72807.429688
1202.058594	72444.906250
1200.948242	72823.796875
1199.838867	73238.585938
1198.728516	73175.734375
1197.619141	73268.281250
1196.508789	72453.437500
1195.397461	72840.968750
1194.287109	72598.164062
1193.175781	72778.492188
1192.064453	72819.265625
1190.953125	72999.492188
1189.841797	72954.734375
1188.730469	72732.351562
1187.618164	73180.023438
1186.505859	73175.710938
1185.393555	72667.976562
1184.281250	73061.476562
1183.167969	72926.875000
1182.055664	72511.554688
1180.942383	72907.101562
1179.829102	72496.414062
1178.714844	72698.750000
1177.601562	72804.492188
1176.487305	72840.617188
1175.373047	72966.484375
1174.258789	72414.812500
1173.143555	73070.031250
1172.029297	72392.953125
1170.914062	72523.281250
1169.798828	72615.445312
1168.683594	72947.398438
1167.568359	73095.468750
1166.452148	72403.304688
1165.335938	72432.687500
1164.219727	72616.601562
1163.103516	72433.203125
1161.986328	72583.453125
1160.870117	72234.476562
1159.752930	72317.562500
1158.635742	72541.585938
1157.518555	72398.625000
1156.400391	72148.343750
1155.282227	72609.328125
1154.164062	71802.328125
1153.045898	72158.125000
1151.927734	71706.890625
1150.808594	71751.937500
1149.690430	71998.054688
1148.571289	71993.875000
1147.452148	72119.250000
1146.332031	71748.804688
1145.212891	72327.414062
1144.092773	71700.343750
1142.972656	72035.460938
1141.852539	72350.375000
1140.731445	71897.664062
1139.611328	71768.562500
1138.490234	71592.671875
1137.369141	71688.890625
1136.248047	71693.664062
1135.125977	71631.554688
1134.003906	71995.148438
1132.882812	71732.460938
1131.760742	71977.812500
1130.637695	71617.210938
1129.515625	71492.804688
1128.392578	71361.757812
1127.269531	71836.289062
1126.146484	71798.703125
1125.023438	71342.757812
1123.899414	71703.546875
1122.775391	71205.507812
1121.651367	71446.078125
1120.527344	71610.953125
1119.403320	71491.164062
1118.278320	71500.351562
1117.153320	71951.828125
1116.028320	72058.703125
1114.903320	71465.671875
1113.778320	71685.875000
1112.652344	71350.757812
1111.526367	71466.531250
1110.400391	71420.179688
1109.274414	71444.882812
1108.147461	71516.179688
1107.021484	71252.390625
1105.894531	70851.140625
1104.767578	71009.000000
1103.639648	71393.007812
1102.512695	71634.968750
1101.384766	71318.171875
1100.256836	71371.640625
1099.128906	70492.117188
1098.000000	70929.031250
1096.872070	71241.726562
1095.743164	71412.546875
1094.614258	70963.250000
1093.485352	71045.492188
1092.355469	71504.031250
1091.226562	71187.750000
1090.096680	71283.179688
1088.966797	71498.039062
1087.835938	71086.804688
1086.706055	71135.742188
1085.575195	71363.765625
1084.444336	71324.195312
1083.313477	71282.429688
1082.182617	71455.039062
1081.050781	71441.984375
1079.918945	71230.093750
1078.787109	71031.531250
1077.655273	71486.734375
1076.523438	71544.320312
1075.390625	71487.085938
1074.257812	70953.117188
1073.125000	71542.601562
1071.992188	71386.101562
1070.859375	71483.343750
1069.725586	71214.421875
1068.591797	71174.937500
1067.458008	71651.382812
1066.324219	71494.992188
1065.189453	71354.078125
1064.054688	71305.773438
1062.919922	71231.039062
1061.785156	71010.945312
1060.650391	71209.375000
1059.514648	71425.351562
1058.378906	71405.679688
1057.243164	71650.148438
1056.107422	71515.992188
1054.971680	71731.742188
1053.834961	71672.414062
1052.698242	71540.515625
1051.561523	71531.820312
1050.424805	71120.750000
1049.287109	71461.664062
1048.150391	71450.773438
1047.012695	71147.617188
1045.874023	70853.359375
1044.736328	71290.710938
1043.597656	71152.468750
1042.459961	70981.328125
1041.321289	71280.093750
1040.181641	70683.132812
1039.042969	71001.585938
1037.903320	70799.867188
1036.764648	71094.046875
1035.624023	70714.703125
1034.484375	70870.617188
1033.344727	70923.414062
1032.204102	70491.687500
1031.063477	70697.960938
1029.922852	70614.875000
1028.782227	70794.750000
1027.640625	70976.742188
1026.499023	70852.031250
1025.357422	70707.648438
1024.215820	71145.726562
1023.074219	70843.718750
1021.931641	70784.765625
1020.789062	71084.710938
1019.646484	70693.171875
1018.503906	70920.835938
1017.360352	70472.593750
1016.216797	70708.953125
1015.074219	70936.476562
1013.929688	70265.515625
1012.786133	70165.203125
1011.641602	71048.218750
1010.498047	70543.632812
1009.353516	70923.859375
1008.208008	70495.906250
1007.063477	70419.656250
1005.917969	70507.156250
1004.772461	71015.875000
1003.626953	70134.296875
1002.481445	70038.507812
1001.335938	70446.679688
1000.189453	70289.796875
999.042969	70052.289062
997.896484	70750.195312
996.749023	70915.960938
995.602539	70351.531250
994.455078	70526.015625
993.307617	70465.132812
992.160156	70665.664062
991.011719	70214.937500
989.864258	70515.593750
988.715820	70245.750000
987.567383	70700.835938
986.417969	70119.835938
985.269531	70496.437500
984.120117	70476.960938
982.970703	70698.921875
981.821289	70266.218750
980.670898	70672.945312
979.521484	70203.445312
978.371094	70553.515625
977.220703	70240.664062
976.070312	70242.960938
974.918945	70432.070312
973.768555	70186.734375
972.617188	70627.671875
971.464844	70705.875000
970.313477	70523.562500
969.162109	70482.382812
968.009766	70456.406250
966.857422	70039.921875
965.705078	70512.921875
964.551758	70664.773438
963.398438	70862.101562
962.246094	70196.531250
961.092773	69836.820312
959.938477	70467.601562
958.785156	70822.984375
957.630859	70428.679688
956.476562	70391.898438
955.322266	70134.250000
954.166992	70816.343750
953.012695	70279.453125
951.857422	70305.476562
950.702148	70197.328125
949.546875	70108.679688
948.390625	70177.976562
947.235352	70487.304688
946.079102	70188.906250
944.921875	70413.789062
943.765625	70121.992188
942.609375	69912.421875
941.452148	70351.140625
940.294922	69508.617188
939.137695	70601.703125
937.979492	70055.296875
936.821289	70683.656250
935.664062	70536.796875
934.504883	70213.007812
933.346680	70303.656250
932.188477	70055.531250
931.029297	69919.664062
929.870117	69865.804688
928.710938	69941.343750
927.550781	69930.609375
926.391602	70001.796875
925.231445	69646.218750
924.071289	69971.687500
922.910156	69499.906250
921.750000	69838.195312
920.588867	69769.328125
919.427734	70156.960938
918.266602	69877.078125
917.105469	69666.179688
915.943359	69905.117188
914.781250	70146.117188
913.619141	69948.179688
912.457031	69851.398438
911.294922	69638.531250
910.131836	69399.937500
908.968750	69404.335938
907.805664	69664.484375
906.642578	69915.937500
905.478516	69845.031250
904.314453	69555.046875
903.150391	69372.554688
901.986328	69613.125000
900.821289	69557.343750
899.657227	69138.835938
898.492188	69023.062500
897.327148	69548.882812
896.161133	69164.921875
894.996094	69675.500000
893.830078	69283.070312
892.664062	69508.265625
891.498047	69525.445312
890.331055	69133.250000
889.165039	68976.914062
887.998047	69157.000000
886.831055	69144.234375
885.663086	69349.914062
884.496094	69495.562500
883.328125	69144.468750
882.160156	69335.046875
880.992188	68898.500000
879.824219	68958.523438
878.655273	68969.312500
877.486328	69144.796875
876.317383	69388.640625
875.148438	69189.804688
873.978516	69065.859375
872.808594	68764.554688
871.638672	69247.617188
870.468750	69286.093750
869.298828	69269.015625
868.127930	69608.617188
866.957031	69151.593750
865.786133	69670.414062
864.615234	69055.585938
863.443359	69405.632812
862.272461	68876.421875
861.100586	69205.031250
859.927734	69269.015625
858.755859	69183.703125
857.583008	69373.460938
856.411133	69486.414062
855.237305	69609.968750
854.064453	69322.187500
852.891602	69043.039062
851.717773	69279.500000
850.543945	69775.718750
849.370117	68768.359375
848.195312	69519.960938
847.021484	69153.742188
845.846680	69713.445312
844.671875	69815.453125
843.496094	69651.476562
842.321289	69542.867188
841.145508	69336.468750
839.969727	69846.703125
838.793945	69676.453125
837.618164	69427.625000
836.441406	69878.039062
835.264648	69544.273438
834.087891	69461.289062
832.911133	69851.976562
831.733398	69637.304688
830.555664	69594.679688
829.377930	69895.960938
828.200195	69751.421875
827.022461	69738.507812
825.843750	69519.789062
824.665039	69540.851562
823.486328	69852.445312
822.307617	69699.562500
821.127930	69659.085938
819.949219	70209.992188
818.769531	69434.062500
817.588867	69955.140625
816.409180	69796.000000
815.228516	69734.351562
814.047852	70125.890625
812.867188	70244.164062
811.686523	69668.054688
810.504883	69864.671875
809.324219	69936.359375
808.142578	70331.718750
806.959961	69785.625000
805.778320	69789.601562
804.595703	70085.375000
803.413086	69930.734375
802.230469	69831.093750
801.047852	70154.164062
799.864258	69634.046875
798.680664	70140.812500
797.497070	69726.492188
796.313477	70034.539062
795.129883	69630.945312
793.945312	69763.679688
792.760742	69797.164062
791.576172	69471.906250
790.390625	69971.695312
789.206055	69481.976562
788.020508	69498.609375
786.834961	69877.906250
785.649414	69662.546875
784.462891	69860.398438
783.276367	69807.382812
782.089844	69623.750000
780.903320	69665.593750
779.716797	69593.679688
778.529297	69694.476562
777.341797	69582.570312
776.154297	69963.304688
774.966797	69653.546875
773.778320	69665.859375
772.590820	69610.835938
771.402344	69511.656250
770.212891	69698.546875
769.024414	69784.421875
767.834961	69350.984375
766.645508	69659.695312
765.456055	69564.789062
764.266602	69761.976562
763.076172	69820.437500
761.886719	69301.265625
760.696289	69454.281250
759.504883	69584.148438
758.314453	69604.796875
757.123047	69526.789062
755.931641	69532.750000
754.740234	70153.437500
753.548828	69886.570312
752.356445	69508.648438
751.164062	69265.062500
749.971680	69604.390625
748.779297	69861.843750
747.585938	69718.914062
746.392578	69270.109375
745.199219	69401.781250
744.005859	69826.632812
742.812500	69206.328125
741.618164	69218.570312
740.423828	69387.820312
739.229492	69213.742188
738.035156	69824.460938
736.839844	69612.703125
735.644531	69380.101562
734.449219	69379.734375
733.253906	69293.632812
732.058594	69366.453125
730.862305	69547.937500
729.666016	69294.648438
728.469727	69166.820312
727.272461	69621.906250
726.076172	69888.828125
724.878906	69249.312500
723.681641	69781.367188
722.484375	69607.625000
721.286133	69152.179688
720.087891	69410.578125
718.889648	68913.601562
717.691406	69626.695312
716.493164	69292.539062
715.293945	69365.117188
714.094727	70038.101562
712.895508	69754.078125
711.695312	69684.804688
710.496094	69403.023438
709.295898	69633.828125
708.095703	69700.000000
706.895508	69755.726562
705.694336	69728.148438
704.493164	69590.250000
703.291992	69602.250000
702.090820	70005.460938
700.889648	69830.125000
699.687500	69109.835938
698.485352	69454.671875
697.283203	69643.421875
696.081055	70156.421875
694.877930	69681.882812
693.674805	69833.062500
692.471680	69734.843750
691.268555	69389.437500
690.065430	70232.242188
688.861328	69741.500000
687.657227	70010.867188
686.453125	69717.546875
685.248047	69513.593750
684.043945	70096.179688
682.838867	70060.273438
681.633789	69694.554688
680.427734	69942.867188
679.222656	69913.218750
678.016602	69815.164062
676.810547	69654.960938
675.604492	69662.679688
674.397461	69612.375000
673.190430	69785.820312
671.983398	69190.757812
670.776367	70225.703125
669.569336	69680.468750
668.361328	69913.796875
667.153320	69877.968750
665.945312	69477.945312
664.737305	69680.140625
663.528320	69561.625000
662.319336	69937.437500
661.110352	69680.375000
659.901367	69421.328125
658.692383	69854.828125
657.482422	68973.789062
656.272461	69719.210938
655.062500	69813.601562
653.851562	69492.796875
652.641602	69777.171875
651.430664	69629.921875
650.219727	69631.351562
649.007812	69647.226562
647.796875	69537.218750
646.584961	69416.929688
645.373047	69257.492188
644.161133	69452.835938
642.948242	69592.437500
641.735352	69006.289062
640.522461	69426.234375
639.309570	69124.734375
638.096680	69340.507812
636.882812	69047.367188
635.668945	69318.679688
634.455078	69289.234375
633.241211	69414.218750
632.026367	69040.984375
630.811523	69390.289062
629.596680	69218.859375
628.381836	69024.851562
627.166016	68962.562500
625.950195	68951.703125
624.734375	69224.609375
623.518555	68909.445312
622.302734	68857.484375
621.085938	69426.171875
619.869141	69189.210938
618.652344	68660.625000
617.435547	68966.117188
616.217773	68731.421875
615.000000	69028.570312
613.782227	68617.406250
612.564453	69086.859375
611.345703	69071.859375
610.126953	69169.703125
608.908203	69164.945312
607.689453	69283.242188
606.469727	69319.468750
605.250977	68994.867188
604.031250	69627.578125
602.810547	69243.609375
601.590820	69240.875000
600.370117	69100.882812
599.149414	68971.179688
597.928711	69173.265625
596.708008	69260.617188
595.486328	69517.835938
594.264648	69017.703125
593.042969	69051.820312
591.821289	69505.320312
590.598633	69363.421875
589.376953	69121.367188
588.154297	69147.242188
586.930664	68931.890625
585.708008	69162.179688
584.484375	69259.554688
583.260742	69385.492188
582.037109	69705.445312
580.813477	69755.679688
579.588867	69818.140625
578.364258	69694.789062
577.139648	69542.906250
575.914062	70060.468750
574.689453	69784.101562
573.463867	70132.093750
572.238281	70514.632812
571.012695	70376.992188
569.786133	70583.984375
568.559570	70697.117188
567.333008	70867.273438
566.106445	71226.882812
564.878906	71600.609375
563.652344	72012.898438
562.424805	71964.750000
561.197266	72771.843750
559.968750	73596.953125
558.740234	74474.671875
557.512695	75514.867188
556.283203	77399.078125
555.054688	79526.703125
553.825195	80703.664062
552.595703	82193.343750
551.366211	82543.875000
550.136719	82138.054688
548.906250	81329.960938
547.676758	79849.562500
546.446289	77587.523438
545.214844	76047.437500
543.984375	74560.726562
542.752930	73866.484375
541.521484	73022.265625
540.290039	72507.179688
539.057617	72109.984375
537.826172	71627.726562
536.593750	71060.437500
535.361328	70740.812500
534.127930	70747.781250
532.894531	70059.320312
531.662109	69896.132812
530.427734	69733.007812
529.194336	69833.359375
527.959961	69684.476562
526.726562	69588.312500
525.492188	69208.656250
524.256836	69092.367188
523.022461	68953.843750
521.787109	68835.617188
520.551758	68676.953125
519.316406	68581.070312
518.080078	68495.335938
516.843750	68759.515625
515.607422	68362.367188
514.371094	68836.734375
513.134766	68282.039062
511.897461	68111.546875
510.660156	68571.539062
509.422852	67898.007812
508.184570	68167.992188
506.947266	68157.171875
505.708984	68095.867188
504.470703	67844.828125
503.231445	68114.609375
501.993164	68388.328125
500.753906	67979.992188
499.514648	67949.023438
498.274414	68502.945312
497.035156	67792.343750
495.794922	67836.015625
494.554688	67944.171875
493.314453	68203.421875
492.073242	68369.890625
490.832031	67738.539062
489.590820	68879.875000
488.349609	68619.187500
487.108398	68318.335938
485.866211	68750.320312
484.624023	68789.679688
483.381836	69122.812500
482.138672	68377.453125
480.896484	68917.710938
479.653320	68576.898438
478.410156	68881.656250
477.166016	68464.578125
475.921875	68481.812500
474.678711	68474.914062
473.433594	68439.890625
472.189453	68756.421875
470.944336	68371.875000
469.700195	68481.460938
468.455078	68332.015625
467.208984	68230.789062
465.963867	68551.062500
464.717773	67799.703125
463.471680	67939.367188
462.224609	68050.898438
460.978516	68196.476562
459.731445	68488.359375
458.484375	68397.242188
457.237305	67987.476562
455.989258	67559.820312
454.742188	67967.804688
453.494141	67993.023438
452.245117	67419.398438
450.997070	67973.335938
449.748047	67560.085938
448.499023	68093.765625
447.250000	67460.507812
446.000977	67431.750000
444.750977	67276.968750
443.500977	67022.234375
442.250977	66591.617188
441.000000	67302.804688
439.750000	67130.156250
438.499023	67001.546875
437.248047	67538.390625
435.996094	67054.125000
434.745117	66627.968750
433.493164	66715.218750
432.241211	66670.656250
430.989258	66925.554688
429.736328	66146.437500
428.483398	66918.195312
427.230469	66851.664062
425.977539	66547.765625
424.723633	66086.421875
423.469727	66917.414062
422.215820	66496.039062
420.961914	66601.062500
419.708008	66733.945312
418.453125	66324.789062
417.198242	66413.835938
415.942383	66502.843750
414.687500	66285.140625
413.431641	65948.046875
412.175781	66273.976562
410.919922	66110.164062
409.664062	65962.328125
408.407227	66624.296875
407.150391	65923.421875
405.893555	66766.125000
404.635742	66667.968750
403.378906	66627.507812
402.121094	66207.414062
400.862305	66506.875000
399.604492	66951.265625
398.345703	66930.640625
397.086914	67114.585938
395.828125	67473.210938
394.569336	67790.000000
393.309570	68120.562500
392.049805	68000.484375
390.790039	67751.460938
389.530273	67437.062500
388.269531	67057.328125
387.008789	66889.921875
385.748047	66653.187500
384.487305	66406.625000
383.225586	65981.773438
381.963867	65967.273438
380.702148	66137.039062
379.440430	65956.125000
378.177734	65923.804688
376.915039	65907.335938
375.652344	66055.195312
374.389648	65919.945312
373.126953	65113.847656
371.863281	65887.015625
370.599609	65720.210938
369.334961	65235.019531
368.071289	65974.093750
366.806641	65006.613281
365.541992	64915.203125
364.277344	65120.285156
363.011719	64878.707031
361.746094	65261.519531
360.480469	64891.601562
359.214844	65284.136719
357.949219	65362.566406
356.682617	65134.972656
355.416016	65270.636719
354.149414	64841.855469
352.881836	65127.464844
351.614258	64671.246094
350.346680	65296.007812
349.079102	64891.195312
347.811523	64884.781250
346.542969	65349.472656
345.274414	64976.402344
344.005859	65013.316406
342.736328	64886.699219
341.466797	64738.460938
340.197266	64338.210938
338.927734	64450.023438
337.658203	64557.851562
336.387695	63882.312500
335.117188	64379.820312
333.846680	63997.707031
332.575195	64144.871094
331.304688	63849.472656
330.033203	63681.996094
328.761719	63803.566406
327.489258	64098.054688
326.216797	63637.808594
324.944336	63900.773438
323.671875	63967.195312
322.399414	64379.257812
321.125977	64143.152344
319.852539	64568.761719
318.579102	64611.437500
317.305664	64903.335938
316.031250	64806.609375
314.756836	64501.968750
313.482422	64923.167969
312.207031	64618.613281
310.932617	64096.535156
309.657227	64011.804688
308.381836	63883.980469
307.105469	63652.347656
305.830078	63354.187500
304.553711	63728.007812
303.277344	63478.902344
302.000000	63619.542969
300.722656	63415.570312
299.446289	63288.011719
298.167969	62780.847656
296.890625	62790.410156
295.612305	62927.121094
294.333984	62551.347656
293.055664	62625.468750
291.777344	62773.851562
290.498047	62439.363281
289.218750	62548.632812
287.939453	62396.027344
286.660156	62550.187500
285.379883	62530.453125
284.099609	61899.480469
282.819336	62311.367188
281.539062	62687.957031
280.257812	61774.304688
278.976562	61698.128906
277.695312	61723.433594
276.413086	61668.750000
275.131836	61413.207031
273.849609	61292.300781
272.567383	61341.042969
271.284180	61360.531250
270.001953	61372.210938
268.718750	61779.402344
267.435547	61389.703125
266.151367	61407.203125
264.868164	61718.734375
263.583984	62055.449219
262.298828	62117.574219
261.014648	62422.941406
259.729492	62788.511719
258.444336	63276.496094
257.159180	64069.664062
255.874023	64753.625000
254.587891	64733.484375
253.301758	63879.406250
252.015625	63418.246094
250.729492	62898.964844
249.442383	62527.531250
248.155273	61824.078125
246.868164	61056.804688
245.581055	60905.339844
244.292969	61297.503906
243.004883	60988.824219
241.716797	60752.066406
240.427734	60798.664062
239.139648	60787.046875
237.850586	60719.187500
236.560547	60333.335938
235.271484	60583.535156
233.981445	60585.523438
232.691406	60343.320312
231.401367	60353.101562
230.111328	60694.144531
228.820312	60372.640625
227.529297	60851.035156
226.238281	60310.832031
224.946289	60386.410156
223.655273	60285.832031
222.363281	59955.023438
221.070312	59900.992188
219.778320	59732.859375
218.485352	59067.765625
217.192383	58843.777344
215.899414	59134.097656
214.605469	58438.566406
213.312500	58435.117188
212.018555	58684.765625
210.723633	58582.742188
209.429688	58268.312500
208.134766	58230.128906
206.839844	58076.117188
205.544922	58466.488281
204.249023	57606.160156
202.954102	57735.984375
201.658203	57668.988281
200.361328	57497.859375
199.065430	57805.031250
197.768555	57030.472656
196.471680	57094.726562
195.174805	56887.210938
193.876953	57097.910156
192.579102	56828.816406
191.281250	56918.089844
189.983398	57022.734375
188.684570	57396.894531
187.385742	56302.093750
186.086914	56612.726562
184.788086	56511.437500
183.488281	56727.632812
182.188477	56305.113281
180.888672	56271.242188
179.588867	56364.292969
178.288086	56109.332031
176.988281	56567.570312
175.686523	56691.246094
174.385742	55932.964844
173.083984	56006.765625
171.782227	56147.753906
170.480469	56136.988281
169.178711	56437.246094
167.875977	56176.882812
166.573242	56325.398438
165.270508	55965.371094
163.967773	56169.500000
162.664062	56058.984375
161.360352	55977.277344
160.056641	55671.269531
158.751953	55819.691406
157.448242	56383.957031
156.143555	56486.191406
154.838867	57122.906250
153.533203	58368.496094
152.227539	57627.636719
150.921875	57176.183594
149.616211	55779.195312
148.310547	55496.699219
147.003906	55478.386719
145.697266	55155.871094
144.390625	55439.867188
143.083008	54761.746094
141.775391	54808.593750
140.467773	54390.851562
139.160156	54951.921875
137.851562	54339.378906
136.542969	54319.386719
135.234375	53957.449219
133.925781	53863.042969
132.616211	53919.531250
131.307617	53468.132812
129.998047	54080.148438
128.687500	54531.613281
127.377930	56032.375000
126.067383	59304.875000
124.756836	62917.535156
123.445312	65598.171875
122.133789	64538.800781
120.823242	58264.191406
119.510742	51452.613281
