#Wave		#Intensity
1698.992188	33311.218750
1697.971680	33330.816406
1696.951172	33851.554688
1695.930664	33632.496094
1694.909180	33335.160156
1693.887695	33417.394531
1692.867188	33502.042969
1691.844727	33476.535156
1690.823242	33725.082031
1689.801758	33405.968750
1688.779297	33426.960938
1687.756836	33949.281250
1686.734375	33813.679688
1685.711914	33690.343750
1684.689453	33623.273438
1683.666016	33697.964844
1682.643555	33498.968750
1681.620117	33688.472656
1680.596680	33763.109375
1679.572266	33688.746094
1678.548828	33814.628906
1677.524414	33313.070312
1676.500000	33702.578125
1675.475586	33745.414062
1674.451172	33617.437500
1673.426758	33726.136719
1672.401367	33444.542969
1671.375977	33997.066406
1670.350586	33774.039062
1669.325195	33877.753906
1668.299805	33562.207031
1667.274414	33575.753906
1666.248047	33435.796875
1665.221680	33649.113281
1664.195312	33699.167969
1663.168945	33332.785156
1662.141602	33609.304688
1661.115234	33374.519531
1660.087891	33770.195312
1659.060547	33559.796875
1658.033203	33480.851562
1657.004883	33781.421875
1655.977539	33541.945312
1654.949219	33570.039062
1653.920898	33532.476562
1652.892578	33545.976562
1651.863281	33751.472656
1650.834961	33536.503906
1649.805664	33576.718750
1648.776367	33641.203125
1647.747070	33674.093750
1646.717773	33903.664062
1645.688477	33526.187500
1644.658203	33377.019531
1643.627930	33494.871094
1642.597656	33585.988281
1641.567383	33538.785156
1640.537109	33249.023438
1639.505859	33228.570312
1638.474609	33336.640625
1637.444336	33354.964844
1636.412109	33605.984375
1635.380859	33699.382812
1634.349609	33586.781250
1633.317383	33270.714844
1632.285156	33589.390625
1631.252930	33169.292969
1630.220703	33613.781250
1629.187500	33506.128906
1628.155273	33342.843750
1627.122070	33230.437500
1626.088867	33161.625000
1625.055664	33557.328125
1624.021484	33309.484375
1622.988281	33492.199219
1621.954102	33389.531250
1620.919922	33236.128906
1619.885742	33409.089844
1618.851562	33507.070312
1617.816406	33334.394531
1616.782227	33316.390625
1615.747070	33402.253906
1614.711914	33604.003906
1613.675781	33612.515625
1612.640625	33444.796875
1611.604492	33284.378906
1610.568359	33580.117188
1609.532227	33159.144531
1608.496094	33601.949219
1607.459961	33050.875000
1606.422852	33640.644531
1605.385742	33453.828125
1604.349609	33387.613281
1603.311523	33629.929688
1602.274414	33527.554688
1601.237305	33107.179688
1600.199219	33484.312500
1599.161133	32970.160156
1598.123047	33378.488281
1597.084961	33485.710938
1596.045898	33340.132812
1595.006836	33647.085938
1593.968750	33597.781250
1592.929688	33293.468750
1591.889648	33487.199219
1590.850586	33517.316406
1589.810547	33547.421875
1588.771484	33755.429688
1587.731445	33499.425781
1586.690430	33250.722656
1585.650391	33283.250000
1584.610352	33568.031250
1583.569336	33396.308594
1582.528320	33472.019531
1581.487305	33516.488281
1580.445312	33419.289062
1579.404297	33202.105469
1578.362305	33294.589844
1577.320312	33559.808594
1576.278320	33479.457031
1575.236328	33627.011719
1574.194336	33587.445312
1573.151367	33914.761719
1572.108398	33642.609375
1571.065430	33502.386719
1570.022461	33597.070312
1568.979492	33262.820312
1567.935547	33704.886719
1566.891602	33703.671875
1565.847656	33580.316406
1564.803711	34103.496094
1563.759766	33575.531250
1562.714844	33804.117188
1561.669922	33558.781250
1560.625977	33703.539062
1559.580078	33498.972656
1558.535156	33710.660156
1557.490234	33642.472656
1556.444336	33827.753906
1555.398438	33891.050781
1554.352539	33335.273438
1553.306641	33907.640625
1552.259766	33923.097656
1551.213867	33716.386719
1550.166992	33528.851562
1549.120117	33711.523438
1548.073242	33483.464844
1547.025391	33763.953125
1545.978516	33901.132812
1544.930664	33561.003906
1543.882812	33671.925781
1542.834961	33677.843750
1541.786133	33609.824219
1540.738281	33825.597656
1539.689453	33845.789062
1538.640625	33568.000000
1537.591797	33597.761719
1536.542969	33851.500000
1535.493164	33981.261719
1534.443359	33470.199219
1533.393555	34102.500000
1532.343750	33629.699219
1531.293945	33637.980469
1530.244141	33741.472656
1529.193359	33887.761719
1528.142578	33708.007812
1527.091797	33597.312500
1526.041016	33724.515625
1524.989258	33625.742188
1523.938477	33683.941406
1522.886719	33770.640625
1521.834961	33930.996094
1520.783203	33770.460938
1519.730469	33845.218750
1518.678711	33608.730469
1517.625977	33752.367188
1516.573242	34000.445312
1515.520508	33932.636719
1514.466797	33871.972656
1513.414062	33718.761719
1512.360352	33885.972656
1511.306641	33666.375000
1510.252930	33731.527344
1509.199219	33685.175781
1508.144531	33819.070312
1507.090820	34033.531250
1506.036133	33695.566406
1504.981445	33834.121094
1503.925781	33740.394531
1502.871094	33921.539062
1501.815430	33669.109375
1500.759766	33655.980469
1499.704102	33446.312500
1498.648438	33845.195312
1497.592773	33794.167969
1496.536133	33721.851562
1495.479492	33588.039062
1494.422852	33527.613281
1493.366211	33303.992188
1492.308594	33733.210938
1491.251953	33433.957031
1490.194336	33680.949219
1489.136719	33611.101562
1488.079102	33633.449219
1487.020508	33785.750000
1485.962891	33725.367188
1484.904297	33400.445312
1483.845703	33375.574219
1482.787109	33634.062500
1481.728516	33885.378906
1480.668945	33475.679688
1479.609375	33870.890625
1478.549805	33624.148438
1477.490234	33752.601562
1476.430664	33836.191406
1475.370117	33672.125000
1474.310547	33793.421875
1473.250000	33520.976562
1472.189453	33639.898438
1471.127930	33645.660156
1470.067383	33460.562500
1469.005859	33638.320312
1467.944336	33552.214844
1466.882812	33270.675781
1465.821289	33375.378906
1464.759766	33503.582031
1463.697266	33495.226562
1462.634766	33708.082031
1461.572266	33647.925781
1460.509766	33679.535156
1459.446289	33560.605469
1458.383789	33538.132812
1457.320312	33468.640625
1456.256836	33074.769531
1455.193359	33451.945312
1454.128906	33631.589844
1453.065430	33529.234375
1452.000977	33725.242188
1450.936523	33493.726562
1449.872070	33412.582031
1448.806641	33681.281250
1447.742188	33224.550781
1446.676758	33497.878906
1445.611328	33527.070312
1444.545898	33603.171875
1443.479492	33318.007812
1442.414062	33591.121094
1441.347656	33228.679688
1440.281250	33574.382812
1439.214844	33125.343750
1438.147461	33489.687500
1437.081055	33493.050781
1436.013672	33217.628906
1434.946289	33488.062500
1433.878906	33507.816406
1432.811523	33122.484375
1431.743164	33725.214844
1430.675781	33473.394531
1429.607422	33205.285156
1428.539062	32981.726562
1427.469727	33424.964844
1426.401367	33271.613281
1425.332031	33333.457031
1424.262695	33570.636719
1423.193359	33185.902344
1422.124023	33614.679688
1421.053711	33388.980469
1419.984375	33296.535156
1418.914062	33320.925781
1417.843750	33359.320312
1416.772461	33329.976562
1415.702148	33223.597656
1414.630859	33231.636719
1413.559570	33244.335938
1412.488281	33156.695312
1411.416992	33363.046875
1410.345703	33441.031250
1409.273438	33411.699219
1408.201172	33018.617188
1407.128906	33544.242188
1406.056641	33507.914062
1404.983398	33438.964844
1403.911133	33335.089844
1402.837891	33186.988281
1401.764648	33139.093750
1400.691406	33067.929688
1399.617188	33399.613281
1398.542969	33198.054688
1397.469727	32852.253906
1396.395508	33618.984375
1395.320312	33377.933594
1394.246094	33127.660156
1393.170898	33017.035156
1392.096680	33122.726562
1391.020508	33393.460938
1389.945312	33215.425781
1388.870117	33279.179688
1387.793945	33087.285156
1386.717773	33332.265625
1385.641602	33249.613281
1384.565430	33178.597656
1383.489258	33137.796875
1382.412109	33138.800781
1381.334961	33151.410156
1380.257812	33240.601562
1379.180664	33271.750000
1378.103516	33268.082031
1377.025391	33607.730469
1375.947266	33341.921875
1374.869141	33055.339844
1373.791016	32982.156250
1372.712891	32997.082031
1371.633789	33202.042969
1370.555664	33362.906250
1369.476562	33166.925781
1368.396484	33167.902344
1367.317383	33330.992188
1366.237305	32810.945312
1365.158203	33462.527344
1364.078125	32789.871094
1362.997070	33212.105469
1361.916992	33171.417969
1360.835938	33114.546875
1359.755859	33191.851562
1358.674805	33160.433594
1357.593750	33339.437500
1356.511719	32933.492188
1355.430664	33135.582031
1354.348633	33175.832031
1353.266602	32820.964844
1352.184570	33376.406250
1351.101562	32846.093750
1350.019531	33334.359375
1348.936523	33118.246094
1347.853516	33296.953125
1346.770508	33078.613281
1345.686523	33014.957031
1344.603516	33050.539062
1343.519531	33312.164062
1342.435547	33087.054688
1341.351562	33210.222656
1340.267578	32909.128906
1339.182617	33175.195312
1338.097656	32927.222656
1337.012695	33308.402344
1335.927734	33065.097656
1334.842773	33340.156250
1333.756836	33209.777344
1332.670898	33118.589844
1331.584961	33124.128906
1330.499023	33306.898438
1329.413086	32987.902344
1328.326172	33122.312500
1327.239258	33242.863281
1326.152344	32981.550781
1325.065430	32973.300781
1323.978516	33326.042969
1322.890625	33131.519531
1321.803711	33212.882812
1320.715820	32908.140625
1319.626953	33076.820312
1318.539062	33112.199219
1317.450195	33165.941406
1316.362305	32693.785156
1315.273438	33153.964844
1314.183594	32916.128906
1313.094727	33220.031250
1312.004883	32846.875000
1310.916016	33164.441406
1309.826172	33057.519531
1308.735352	33067.605469
1307.645508	33018.066406
1306.554688	32966.246094
1305.464844	33019.890625
1304.374023	32977.257812
1303.282227	33156.906250
1302.191406	33180.699219
1301.099609	32492.105469
1300.008789	33086.261719
1298.916992	32704.761719
1297.824219	32978.152344
1296.732422	33015.683594
1295.639648	32588.628906
1294.546875	33017.480469
1293.454102	32794.179688
1292.361328	32943.789062
1291.268555	32729.728516
1290.174805	32604.916016
1289.081055	32777.332031
1287.987305	32730.265625
1286.893555	32934.585938
1285.799805	33058.867188
1284.705078	33020.906250
1283.610352	32950.984375
1282.515625	33027.234375
1281.420898	32950.484375
1280.325195	32773.316406
1279.230469	32742.283203
1278.134766	32807.101562
1277.039062	32636.896484
1275.942383	32701.707031
1274.846680	32882.804688
1273.750000	32742.320312
1272.653320	32665.720703
1271.556641	33049.593750
1270.459961	32776.968750
1269.363281	32793.820312
1268.265625	32828.894531
1267.167969	32697.673828
1266.070312	32605.214844
1264.972656	32553.773438
1263.874023	32805.132812
1262.775391	32899.343750
1261.676758	32738.636719
1260.578125	32807.792969
1259.479492	32651.710938
1258.379883	32436.544922
1257.281250	32583.035156
1256.181641	32595.322266
1255.082031	32618.972656
1253.981445	32717.615234
1252.881836	32768.500000
1251.781250	32512.640625
1250.680664	32402.257812
1249.580078	32814.289062
1248.479492	32597.160156
1247.377930	32666.175781
1246.276367	32773.757812
1245.174805	32595.332031
1244.073242	32460.083984
1242.971680	32322.615234
1241.869141	32527.710938
1240.766602	32549.029297
1239.664062	32529.525391
1238.561523	32183.566406
1237.458984	32402.132812
1236.355469	32482.376953
1235.251953	32403.980469
1234.148438	32885.175781
1233.044922	32460.181641
1231.941406	32710.197266
1230.836914	32690.681641
1229.732422	32623.628906
1228.627930	32656.191406
1227.523438	32396.814453
1226.417969	32642.083984
1225.313477	32599.966797
1224.208008	32693.570312
1223.102539	32445.677734
1221.996094	32466.921875
1220.890625	32641.873047
1219.784180	32776.078125
1218.677734	32706.857422
1217.571289	32676.070312
1216.464844	32575.267578
1215.357422	32610.007812
1214.250977	32464.089844
1213.143555	32586.882812
1212.036133	32596.767578
1210.927734	32320.031250
1209.820312	32587.191406
1208.711914	32513.593750
1207.603516	32922.722656
1206.495117	32445.410156
1205.386719	32559.021484
1204.277344	32771.781250
1203.167969	32513.386719
1202.058594	32354.240234
1200.949219	32681.830078
1199.839844	32998.035156
1198.729492	32962.761719
1197.619141	32497.382812
1196.508789	32655.837891
1195.398438	32341.505859
1194.288086	32862.289062
1193.176758	32336.503906
1192.065430	32674.859375
1190.954102	32781.394531
1189.842773	32730.455078
1188.730469	32555.859375
1187.619141	32817.480469
1186.506836	32535.035156
1185.394531	32733.634766
1184.281250	32446.808594
1183.168945	32600.417969
1182.055664	32668.615234
1180.942383	32691.871094
1179.829102	32578.148438
1178.715820	32662.023438
1177.601562	32815.449219
1176.488281	32524.472656
1175.374023	32471.439453
1174.258789	32813.250000
1173.144531	32508.972656
1172.029297	32599.488281
1170.915039	32627.189453
1169.799805	32966.476562
1168.684570	32409.119141
1167.568359	32654.203125
1166.453125	32885.750000
1165.336914	32581.837891
1164.220703	32652.058594
1163.103516	32789.429688
1161.987305	32624.501953
1160.870117	32670.048828
1159.752930	32632.769531
1158.635742	32467.957031
1157.518555	32676.820312
1156.401367	32682.054688
1155.283203	32519.556641
1154.165039	32504.691406
1153.046875	32695.505859
1151.928711	32553.205078
1150.809570	32770.753906
1149.690430	32373.773438
1148.571289	32651.589844
1147.452148	32616.607422
1146.333008	32595.033203
1145.212891	32470.761719
1144.093750	32522.886719
1142.973633	32521.425781
1141.852539	32421.775391
1140.732422	32244.072266
1139.611328	32494.728516
1138.490234	32633.777344
1137.369141	32253.208984
1136.248047	32419.001953
1135.126953	32549.066406
1134.004883	32708.056641
1132.882812	32432.472656
1131.760742	32660.486328
1130.638672	32719.128906
1129.515625	32735.435547
1128.393555	32382.109375
1127.270508	32309.417969
1126.147461	32196.687500
1125.023438	32511.277344
1123.900391	32358.498047
1122.776367	32372.617188
1121.652344	32388.955078
1120.528320	32205.144531
1119.403320	32279.312500
1118.279297	32273.423828
1117.154297	32452.011719
1116.029297	32146.095703
1114.904297	32606.804688
1113.778320	32707.480469
1112.653320	32228.447266
1111.527344	32449.062500
1110.401367	32505.304688
1109.274414	32208.585938
1108.148438	32593.312500
1107.021484	32034.845703
1105.894531	32377.308594
1104.767578	32193.949219
1103.640625	32607.220703
1102.512695	32548.052734
1101.385742	32038.871094
1100.257812	32463.023438
1099.128906	32590.062500
1098.000977	32185.285156
1096.872070	32250.296875
1095.744141	32235.546875
1094.615234	32176.511719
1093.485352	32234.841797
1092.356445	32215.671875
1091.226562	32229.707031
1090.096680	32338.888672
1088.966797	32492.277344
1087.836914	32349.193359
1086.706055	32467.134766
1085.576172	32326.316406
1084.445312	32315.986328
1083.314453	32250.398438
1082.182617	32107.482422
1081.051758	32556.798828
1079.919922	32482.361328
1078.788086	32370.400391
1077.656250	32653.787109
1076.523438	32188.548828
1075.391602	32346.027344
1074.258789	32265.068359
1073.125977	32729.218750
1071.993164	32299.603516
1070.859375	32505.472656
1069.726562	32001.062500
1068.592773	32279.681641
1067.458984	32461.183594
1066.324219	32444.224609
1065.190430	32513.224609
1064.055664	32394.894531
1062.920898	32701.820312
1061.786133	32565.873047
1060.650391	32355.093750
1059.515625	32648.640625
1058.379883	32514.974609
1057.244141	32244.884766
1056.108398	32316.009766
1054.971680	32602.744141
1053.835938	32548.376953
1052.699219	32608.406250
1051.562500	32639.822266
1050.424805	32539.300781
1049.288086	32513.558594
1048.150391	32311.988281
1047.012695	32286.294922
1045.875000	32752.767578
1044.737305	32138.273438
1043.598633	32753.951172
1042.459961	32677.681641
1041.321289	32667.304688
1040.182617	32413.271484
1039.043945	32503.902344
1037.904297	32489.171875
1036.764648	32441.535156
1035.625000	32409.269531
1034.485352	32126.998047
1033.344727	32382.044922
1032.205078	32573.417969
1031.064453	32591.560547
1029.923828	32320.414062
1028.782227	32275.050781
1027.641602	32431.248047
1026.500000	32252.269531
1025.358398	32270.445312
1024.216797	32277.666016
1023.074219	32295.830078
1021.932617	32379.644531
1020.790039	32785.109375
1019.647461	32492.482422
1018.503906	32289.648438
1017.361328	32419.326172
1016.217773	32312.792969
1015.074219	32424.927734
1013.930664	32635.382812
1012.787109	32480.783203
1011.642578	32262.871094
1010.498047	32355.263672
1009.353516	32036.972656
1008.208984	32465.689453
1007.064453	32536.154297
1005.918945	32226.734375
1004.773438	32035.292969
1003.627930	32607.718750
1002.482422	32601.734375
1001.335938	32220.535156
1000.189453	32764.253906
999.043945	32234.875000
997.896484	32355.414062
996.750000	32774.550781
995.602539	32278.150391
994.456055	32385.537109
993.308594	32516.847656
992.160156	32397.605469
991.012695	32489.660156
989.864258	32448.853516
988.715820	32410.238281
987.567383	32369.457031
986.418945	32424.447266
985.269531	32475.064453
984.121094	32358.148438
982.971680	32584.937500
981.821289	32361.482422
980.671875	32299.003906
979.521484	32482.197266
978.372070	32554.474609
977.221680	32470.259766
976.070312	32635.935547
974.919922	32456.154297
973.768555	32337.250000
972.617188	32822.062500
971.465820	32633.656250
970.314453	32291.199219
969.162109	32421.992188
968.009766	32719.814453
966.857422	32470.814453
965.705078	32616.681641
964.552734	32742.972656
963.399414	32585.169922
962.246094	32466.447266
961.092773	32547.175781
959.939453	32851.082031
958.785156	32463.701172
957.631836	32882.324219
956.477539	32414.937500
955.322266	32253.056641
954.167969	32587.042969
953.012695	32290.976562
951.858398	32140.025391
950.703125	32720.531250
949.546875	32684.218750
948.391602	32271.537109
947.235352	32561.890625
946.079102	32430.480469
944.922852	32621.246094
943.766602	32574.171875
942.609375	32598.429688
941.452148	32611.875000
940.294922	32767.894531
939.137695	32427.070312
937.980469	32405.982422
936.822266	32862.070312
935.664062	32618.554688
934.505859	32720.464844
933.347656	32701.490234
932.188477	32535.806641
931.030273	32607.470703
929.871094	32549.701172
928.710938	32504.888672
927.551758	32626.101562
926.391602	32221.310547
925.232422	32333.906250
924.071289	32681.330078
922.911133	32507.265625
921.750977	32820.062500
920.589844	32357.455078
919.428711	32312.732422
918.267578	32164.691406
917.105469	32694.705078
915.944336	32649.941406
914.782227	32215.755859
913.620117	32424.933594
912.458008	32141.501953
911.294922	32202.236328
910.132812	32239.298828
908.969727	32598.785156
907.806641	32347.761719
906.642578	32526.593750
905.479492	32612.974609
904.315430	31977.587891
903.151367	32394.771484
901.987305	32341.554688
900.822266	32404.285156
899.657227	32185.808594
898.493164	32059.691406
897.327148	32321.980469
896.162109	32369.644531
894.997070	32402.277344
893.831055	32160.406250
892.665039	32345.291016
891.499023	32272.867188
890.332031	32082.587891
889.165039	32387.380859
887.999023	32282.845703
886.831055	32152.644531
885.664062	32356.591797
884.497070	32369.888672
883.329102	32697.888672
882.161133	31822.806641
880.993164	32251.369141
879.824219	32256.111328
878.656250	32365.675781
877.487305	32537.226562
876.318359	32417.873047
875.148438	32326.357422
873.979492	32273.353516
872.809570	32560.205078
871.639648	32314.851562
870.469727	32319.560547
869.298828	32332.812500
868.128906	32177.333984
866.958008	32397.734375
865.787109	32233.757812
864.616211	32618.425781
863.444336	32226.109375
862.272461	32303.367188
861.100586	32440.332031
859.928711	32421.535156
858.756836	32543.496094
857.583984	32543.873047
856.411133	32644.445312
855.238281	32768.421875
854.065430	32568.439453
852.891602	32321.652344
851.718750	32509.525391
850.544922	32458.783203
849.370117	32461.294922
848.196289	32548.968750
847.021484	32583.388672
845.847656	32464.560547
844.671875	32341.519531
843.497070	32480.203125
842.322266	32591.181641
841.146484	32833.972656
839.970703	32513.201172
838.794922	32928.109375
837.618164	32737.095703
836.442383	32599.277344
835.265625	32693.103516
834.088867	32952.589844
832.911133	32670.376953
831.734375	32689.808594
830.556641	32785.664062
829.378906	32802.945312
828.201172	32686.503906
827.023438	32943.574219
825.844727	32909.890625
824.666016	32778.644531
823.487305	32708.947266
822.308594	32569.300781
821.128906	32874.906250
819.949219	32540.275391
818.769531	32843.652344
817.589844	32824.851562
816.410156	32842.070312
815.229492	32937.648438
814.048828	32895.542969
812.868164	32993.191406
811.687500	33046.347656
810.505859	33201.070312
809.324219	32830.949219
808.142578	33015.273438
806.960938	33199.527344
805.779297	32998.800781
804.596680	33034.968750
803.414062	32916.796875
802.231445	32718.339844
801.047852	32976.437500
799.865234	33088.644531
798.681641	32987.441406
797.498047	33124.949219
796.314453	32956.195312
795.129883	33017.644531
793.946289	33098.070312
792.761719	32931.523438
791.577148	32908.527344
790.391602	32826.468750
789.207031	33122.023438
788.021484	32835.375000
786.835938	32628.958984
785.649414	33109.902344
784.463867	32608.412109
783.277344	33074.429688
782.090820	33089.359375
780.904297	33150.628906
779.717773	33087.601562
778.530273	32626.583984
777.342773	33182.691406
776.155273	32818.660156
774.967773	32890.441406
773.779297	32770.695312
772.590820	32918.195312
771.402344	33074.054688
770.213867	32950.132812
769.025391	32851.488281
767.835938	33101.871094
766.646484	33211.332031
765.457031	32965.578125
764.267578	32820.769531
763.077148	33213.824219
761.886719	32919.894531
760.696289	32737.371094
759.505859	32876.160156
758.314453	32943.523438
757.124023	32968.878906
755.932617	32885.105469
754.741211	33078.308594
753.548828	32820.433594
752.357422	32862.570312
751.165039	33045.179688
749.972656	33175.308594
748.779297	33026.597656
747.586914	33070.753906
746.393555	32838.304688
745.200195	32970.460938
744.006836	32729.736328
742.813477	32962.382812
741.619141	33035.812500
740.424805	32987.796875
739.230469	32933.519531
738.036133	32965.058594
736.840820	33256.019531
735.645508	32800.082031
734.450195	32886.000000
733.254883	32725.138672
732.058594	33166.449219
730.863281	33034.859375
729.666992	32869.875000
728.470703	32836.593750
727.273438	33049.835938
726.077148	33175.269531
724.879883	33486.519531
723.682617	33217.199219
722.484375	33071.144531
721.287109	33227.785156
720.088867	32845.972656
718.890625	33409.441406
717.692383	33236.335938
716.493164	33146.718750
715.294922	33188.503906
714.095703	33019.699219
712.896484	33213.652344
711.696289	33046.992188
710.497070	33313.792969
709.296875	33336.750000
708.096680	32901.457031
706.895508	32949.468750
705.695312	33018.285156
704.494141	33257.773438
703.292969	33147.503906
702.091797	33037.273438
700.890625	33507.566406
699.688477	33235.050781
698.486328	33305.804688
697.284180	32846.285156
696.082031	33422.281250
694.878906	32996.164062
693.675781	33411.894531
692.472656	33337.089844
691.269531	33270.625000
690.065430	33303.878906
688.862305	33289.359375
687.658203	33081.746094
686.453125	33351.667969
685.249023	33472.050781
684.043945	33391.097656
682.838867	33391.089844
681.633789	33258.320312
680.428711	33349.589844
679.222656	33318.480469
678.017578	33235.550781
676.811523	33471.867188
675.604492	33306.039062
674.398438	33813.687500
673.191406	33444.832031
671.984375	33279.097656
670.777344	33277.023438
669.570312	33223.187500
668.362305	33380.519531
667.154297	33264.585938
665.946289	33461.167969
664.738281	33353.539062
663.529297	33672.070312
662.320312	33603.734375
661.111328	33460.980469
659.902344	33675.937500
658.692383	33326.519531
657.483398	33516.621094
656.273438	33599.203125
655.063477	33314.031250
653.852539	33357.375000
652.641602	33175.609375
651.431641	33413.039062
650.219727	33545.101562
649.008789	33538.828125
647.796875	33450.015625
646.585938	33470.582031
645.374023	33421.003906
644.161133	33443.625000
642.949219	33526.035156
641.736328	33422.867188
640.523438	33507.308594
639.310547	33484.554688
638.096680	33416.476562
636.883789	33525.585938
635.669922	33591.402344
634.456055	33440.964844
633.241211	33356.468750
632.027344	33477.855469
630.812500	32905.597656
629.597656	33323.339844
628.382812	33566.042969
627.166992	33586.500000
625.951172	33236.757812
624.735352	33249.042969
623.519531	33117.410156
622.303711	33464.746094
621.086914	33335.175781
619.870117	33088.535156
618.653320	33146.023438
617.435547	33088.464844
616.218750	33367.707031
615.000977	33201.312500
613.783203	33289.519531
612.564453	33180.664062
611.346680	33256.527344
610.127930	33424.679688
608.909180	33326.113281
607.690430	33303.460938
606.470703	33418.195312
605.250977	33510.335938
604.031250	33547.097656
602.811523	33272.351562
601.591797	33552.960938
600.371094	33192.277344
599.150391	33310.992188
597.929688	33546.382812
596.708984	33490.953125
595.487305	33216.519531
594.265625	33564.351562
593.043945	33204.058594
591.822266	33371.730469
590.599609	33490.242188
589.376953	33391.933594
588.154297	33312.058594
586.931641	33577.703125
585.708984	33532.566406
584.485352	33467.015625
583.261719	33532.246094
582.038086	33405.429688
580.813477	33384.863281
579.589844	33501.117188
578.365234	33427.457031
577.140625	33488.542969
575.915039	33496.542969
574.690430	33500.457031
573.464844	33861.382812
572.239258	33483.800781
571.012695	33628.421875
569.787109	33395.785156
568.560547	33821.687500
567.333984	33491.269531
566.107422	33376.976562
564.879883	33468.500000
563.652344	33229.992188
562.425781	33757.351562
561.197266	33828.386719
559.969727	33779.281250
558.741211	33838.070312
557.512695	33341.250000
556.284180	33332.949219
555.055664	33501.640625
553.826172	33578.734375
552.596680	33405.671875
551.367188	33566.113281
550.137695	33657.378906
548.907227	33614.468750
547.676758	33463.875000
546.446289	33195.496094
545.215820	33447.230469
543.985352	33337.363281
542.753906	33282.363281
541.522461	33172.566406
540.291016	33606.789062
539.058594	33626.847656
537.826172	33352.695312
536.593750	33324.105469
535.361328	33336.093750
534.128906	33232.484375
532.895508	33161.351562
531.662109	33151.058594
530.428711	33189.410156
529.195312	33472.929688
527.960938	32913.546875
526.726562	33290.183594
525.492188	32779.648438
524.257812	33488.234375
523.022461	33158.019531
521.788086	33020.214844
520.552734	33376.234375
519.316406	32938.992188
518.081055	33173.515625
516.844727	33082.324219
515.608398	32995.207031
514.372070	32993.039062
513.134766	33393.121094
511.898438	33263.550781
510.661133	32948.132812
509.423828	32879.296875
508.185547	32848.867188
506.947266	32796.230469
505.709961	33280.687500
504.470703	32949.406250
503.232422	32791.820312
501.993164	33144.835938
500.754883	32973.152344
499.515625	33035.519531
498.275391	33277.363281
497.036133	32837.554688
495.795898	33266.832031
494.555664	32901.773438
493.314453	32847.203125
492.074219	32867.203125
490.833008	33161.171875
489.591797	32997.812500
488.350586	32884.859375
487.108398	32977.316406
485.867188	33120.058594
484.625000	33212.429688
483.382812	33222.261719
482.139648	32952.441406
480.896484	33072.949219
479.653320	32940.007812
478.410156	33126.824219
477.166992	33194.957031
475.922852	33198.742188
474.678711	33089.988281
473.434570	33371.058594
472.190430	33262.312500
470.945312	33541.234375
469.700195	33247.746094
468.455078	33175.214844
467.209961	33078.625000
465.963867	33022.203125
464.718750	33306.921875
463.472656	32965.597656
462.225586	33151.929688
460.979492	33384.316406
459.732422	32912.839844
458.485352	33032.917969
457.238281	33269.195312
455.990234	32964.328125
454.742188	33048.261719
453.494141	33180.234375
452.246094	33340.195312
450.998047	33195.730469
449.749023	33085.351562
448.500000	33081.101562
447.250977	32868.718750
446.000977	32514.353516
444.751953	32996.332031
443.501953	32688.074219
442.251953	32975.859375
441.000977	33267.531250
439.750977	32875.433594
438.500000	32973.148438
437.249023	32555.275391
435.997070	32645.015625
434.746094	33018.363281
433.494141	32620.687500
432.242188	32584.566406
430.989258	32772.046875
429.737305	32398.591797
428.484375	32821.515625
427.231445	32753.453125
425.978516	32477.953125
424.724609	32655.296875
423.470703	32597.271484
422.216797	32383.757812
420.962891	32407.529297
419.708008	32606.669922
418.454102	32331.500000
417.199219	32751.710938
415.943359	32486.574219
414.688477	32576.013672
413.432617	32745.058594
412.176758	32661.222656
410.920898	32360.472656
409.664062	32543.386719
408.408203	32730.210938
407.151367	32596.705078
405.893555	32604.453125
404.636719	32824.957031
403.378906	32337.630859
402.121094	32820.472656
400.863281	32867.914062
399.605469	32829.894531
398.346680	32976.636719
397.087891	32761.841797
395.829102	32688.115234
394.570312	32538.970703
393.310547	32767.039062
392.050781	32903.722656
390.791016	33004.636719
389.531250	32805.941406
388.270508	32623.187500
387.009766	32678.480469
385.749023	32813.062500
384.488281	32953.539062
383.226562	32798.636719
381.964844	32849.886719
380.703125	32881.300781
379.441406	32673.009766
378.178711	32724.248047
376.916016	32573.490234
375.653320	32945.449219
374.390625	32951.074219
373.126953	32964.613281
371.864258	33118.628906
370.599609	33045.082031
369.335938	33026.945312
368.072266	33479.460938
366.807617	33249.687500
365.542969	33358.031250
364.277344	33488.070312
363.012695	33948.054688
361.747070	34445.398438
360.481445	34942.554688
359.215820	35536.289062
357.949219	36402.277344
356.683594	37348.878906
355.416992	37854.964844
354.149414	39069.308594
352.882812	39391.382812
351.615234	40389.949219
350.347656	41240.218750
349.080078	42029.031250
347.811523	43840.761719
346.543945	45687.281250
345.275391	47071.937500
344.005859	47441.308594
342.737305	46199.058594
341.467773	43438.675781
340.198242	41246.492188
338.928711	38683.019531
337.659180	37108.718750
336.388672	36245.515625
335.118164	35146.507812
333.847656	34388.277344
332.576172	34364.035156
331.305664	33842.234375
330.034180	33719.789062
328.761719	33377.207031
327.490234	33374.789062
326.217773	33517.792969
324.945312	33057.550781
323.672852	33057.156250
322.400391	33133.359375
321.126953	33007.269531
319.853516	33030.441406
318.580078	32778.789062
317.305664	32994.320312
316.032227	33054.753906
314.757812	33052.386719
313.483398	33132.398438
312.208008	32808.402344
310.933594	32770.789062
309.658203	32833.160156
308.382812	32785.750000
307.106445	32808.902344
305.830078	33210.164062
304.554688	32629.908203
303.277344	32937.046875
302.000977	33040.425781
300.723633	33169.210938
299.446289	32969.121094
298.168945	33430.550781
296.891602	33792.019531
295.613281	34163.128906
294.334961	34751.191406
293.056641	35321.429688
291.778320	35936.417969
290.499023	35634.406250
289.219727	36454.300781
287.940430	36251.957031
286.661133	36491.203125
285.380859	36423.695312
284.100586	36367.929688
282.820312	36366.855469
281.539062	36016.351562
280.258789	35695.253906
278.977539	35083.527344
277.696289	35022.210938
276.414062	35276.914062
275.132812	35201.925781
273.850586	35321.953125
272.568359	35670.027344
271.285156	36117.371094
270.002930	36656.132812
268.719727	37605.796875
267.435547	38790.804688
266.152344	40625.875000
264.868164	42668.597656
263.583984	45974.078125
262.299805	50621.398438
261.015625	56613.683594
259.730469	65584.617188
258.445312	76518.945312
257.160156	88264.054688
255.875000	96200.914062
254.588867	98216.281250
253.302734	92295.765625
252.016602	82381.546875
250.730469	71079.789062
249.443359	61602.769531
248.156250	54176.695312
246.869141	49316.992188
245.581055	45251.359375
244.293945	42210.355469
243.005859	40226.394531
241.717773	38749.683594
240.428711	37244.429688
239.139648	36461.375000
237.850586	35108.410156
236.561523	34649.890625
235.272461	34015.117188
233.982422	33287.542969
232.692383	33141.644531
231.402344	32581.150391
230.112305	31893.007812
228.821289	31857.857422
227.530273	31561.291016
226.239258	31437.150391
224.947266	31212.396484
223.655273	30840.636719
222.363281	30714.767578
221.071289	30565.728516
219.779297	30232.986328
218.486328	30308.427734
217.193359	30327.765625
215.900391	29871.533203
214.606445	30001.113281
213.313477	29933.535156
212.019531	29404.216797
210.724609	29723.115234
209.430664	29362.062500
208.135742	29076.453125
206.840820	29536.160156
205.545898	29076.904297
204.250000	29358.886719
202.954102	29482.541016
201.658203	28695.605469
200.362305	28954.349609
199.066406	28906.380859
197.769531	28989.533203
196.472656	28671.705078
195.174805	28477.339844
193.877930	28672.283203
192.580078	28524.228516
191.282227	28276.068359
189.984375	28272.576172
188.685547	28228.652344
187.386719	28565.904297
186.087891	28425.701172
184.789062	28295.173828
183.489258	28241.652344
182.189453	28484.382812
180.889648	28365.453125
179.589844	27933.144531
178.289062	28241.154297
176.988281	28195.376953
175.687500	28222.640625
174.386719	28320.982422
173.084961	28315.552734
171.783203	28711.535156
170.481445	28441.033203
169.179688	28155.273438
167.876953	28055.816406
166.574219	28096.496094
165.271484	28236.933594
163.968750	27888.119141
162.665039	28038.130859
161.361328	27595.519531
160.057617	27572.968750
158.752930	27634.771484
157.449219	27790.460938
156.144531	27719.976562
154.838867	27498.166016
153.534180	27690.181641
152.228516	27579.535156
150.922852	27610.621094
149.617188	27398.568359
148.310547	27414.361328
147.004883	27602.376953
145.698242	27317.738281
144.390625	27316.318359
143.083984	27441.125000
141.776367	27456.888672
140.468750	26906.750000
139.161133	27010.533203
137.852539	27005.345703
136.543945	26921.818359
135.235352	26679.763672
133.926758	26787.326172
132.617188	26245.580078
131.308594	26339.818359
129.998047	26227.859375
128.688477	25608.281250
127.377930	25069.080078
126.068359	24968.873047
124.756836	24723.740234
123.446289	24089.666016
122.134766	23808.568359
120.823242	23211.130859
119.511719	22457.634766
