#Wave		#Intensity
1698.992188	53045.121094
1697.971680	53375.855469
1696.951172	53270.882812
1695.930664	53658.195312
1694.909180	53930.285156
1693.887695	53440.902344
1692.867188	53504.871094
1691.844727	53174.804688
1690.823242	53916.578125
1689.801758	53559.640625
1688.779297	53498.789062
1687.756836	53538.226562
1686.734375	53360.035156
1685.711914	53766.183594
1684.689453	53536.679688
1683.666016	53375.679688
1682.643555	53791.375000
1681.620117	53183.324219
1680.596680	53354.648438
1679.572266	53262.167969
1678.548828	53448.066406
1677.524414	53599.718750
1676.500000	54046.652344
1675.475586	54032.195312
1674.451172	54032.378906
1673.426758	53583.695312
1672.401367	53413.222656
1671.375977	54064.625000
1670.350586	53884.371094
1669.325195	53621.292969
1668.299805	53865.269531
1667.274414	53736.316406
1666.248047	53451.468750
1665.221680	53544.304688
1664.195312	53525.070312
1663.168945	53398.691406
1662.141602	53937.042969
1661.115234	53859.320312
1660.087891	53844.902344
1659.060547	53628.507812
1658.033203	53616.566406
1657.004883	53704.359375
1655.977539	53899.136719
1654.949219	53575.882812
1653.920898	53320.820312
1652.892578	53836.429688
1651.863281	53666.468750
1650.834961	53445.539062
1649.805664	53557.535156
1648.776367	53922.121094
1647.747070	53827.550781
1646.717773	53252.207031
1645.688477	53616.648438
1644.658203	53963.964844
1643.627930	53544.226562
1642.597656	53500.750000
1641.567383	53459.714844
1640.537109	52999.046875
1639.505859	53625.058594
1638.474609	53385.179688
1637.444336	53501.769531
1636.412109	53712.855469
1635.380859	53143.480469
1634.349609	53143.734375
1633.317383	53495.277344
1632.285156	53650.492188
1631.252930	53350.347656
1630.220703	53471.628906
1629.187500	53585.597656
1628.155273	53542.195312
1627.122070	53985.242188
1626.088867	53061.015625
1625.055664	53269.324219
1624.021484	53327.585938
1622.988281	53296.347656
1621.954102	53540.761719
1620.919922	53835.859375
1619.885742	53533.824219
1618.851562	52968.476562
1617.816406	53406.066406
1616.782227	53227.468750
1615.747070	53048.933594
1614.711914	53136.101562
1613.675781	53286.015625
1612.640625	53054.449219
1611.604492	52994.332031
1610.568359	53284.148438
1609.532227	53448.398438
1608.496094	53434.070312
1607.459961	53390.804688
1606.422852	53132.921875
1605.385742	53005.332031
1604.349609	53420.183594
1603.311523	53061.199219
1602.274414	53461.425781
1601.237305	53372.410156
1600.199219	53712.210938
1599.161133	53835.125000
1598.123047	53204.261719
1597.084961	53430.750000
1596.045898	53368.285156
1595.006836	53563.367188
1593.968750	53361.328125
1592.929688	53116.050781
1591.889648	53373.609375
1590.850586	53383.351562
1589.810547	53693.671875
1588.771484	53282.609375
1587.731445	53155.339844
1586.690430	53220.382812
1585.650391	53590.574219
1584.610352	53408.050781
1583.569336	53271.234375
1582.528320	53432.269531
1581.487305	53451.570312
1580.445312	53903.007812
1579.404297	53684.574219
1578.362305	53276.625000
1577.320312	53480.695312
1576.278320	53843.031250
1575.236328	53819.046875
1574.194336	53754.304688
1573.151367	53787.890625
1572.108398	53720.769531
1571.065430	53785.507812
1570.022461	53675.269531
1568.979492	53311.082031
1567.935547	54099.347656
1566.891602	53656.167969
1565.847656	54058.515625
1564.803711	53797.468750
1563.759766	53653.820312
1562.714844	53483.890625
1561.669922	53637.089844
1560.625977	53897.906250
1559.580078	54168.195312
1558.535156	56430.789062
1557.490234	53912.132812
1556.444336	53639.511719
1555.398438	53983.753906
1554.352539	53864.183594
1553.306641	54124.617188
1552.259766	54167.527344
1551.213867	54143.535156
1550.166992	54305.847656
1549.120117	54066.914062
1548.073242	53892.527344
1547.025391	54138.339844
1545.978516	54305.300781
1544.930664	53973.464844
1543.882812	53980.535156
1542.834961	53913.656250
1541.786133	53975.585938
1540.738281	53994.570312
1539.689453	54158.980469
1538.640625	54061.121094
1537.591797	54165.871094
1536.542969	54165.738281
1535.493164	54299.019531
1534.443359	53912.964844
1533.393555	54003.367188
1532.343750	54317.570312
1531.293945	54157.886719
1530.244141	53822.109375
1529.193359	54221.847656
1528.142578	54638.097656
1527.091797	54100.187500
1526.041016	53809.847656
1524.989258	53733.648438
1523.938477	53807.277344
1522.886719	54629.750000
1521.834961	54227.792969
1520.783203	54213.355469
1519.730469	53823.496094
1518.678711	54412.554688
1517.625977	54279.320312
1516.573242	53989.394531
1515.520508	53775.546875
1514.466797	53906.003906
1513.414062	54081.511719
1512.360352	53658.921875
1511.306641	53658.824219
1510.252930	54152.160156
1509.199219	53810.421875
1508.144531	54042.691406
1507.090820	53876.542969
1506.036133	54047.078125
1504.981445	53845.433594
1503.925781	54307.386719
1502.871094	54056.007812
1501.815430	54285.601562
1500.759766	54268.792969
1499.704102	53515.519531
1498.648438	54268.328125
1497.592773	53870.402344
1496.536133	53976.738281
1495.479492	54047.542969
1494.422852	54059.167969
1493.366211	53876.816406
1492.308594	53968.878906
1491.251953	54122.386719
1490.194336	54048.871094
1489.136719	53689.355469
1488.079102	53880.636719
1487.020508	54152.191406
1485.962891	53736.144531
1484.904297	53759.597656
1483.845703	54281.359375
1482.787109	54153.582031
1481.728516	53898.359375
1480.668945	54061.027344
1479.609375	53751.628906
1478.549805	53921.335938
1477.490234	53850.343750
1476.430664	53920.902344
1475.370117	53621.175781
1474.310547	54104.375000
1473.250000	53993.316406
1472.189453	53644.230469
1471.127930	53535.648438
1470.067383	53780.531250
1469.005859	53648.398438
1467.944336	53867.261719
1466.882812	53565.597656
1465.821289	53596.031250
1464.759766	53704.136719
1463.697266	53605.074219
1462.634766	53687.250000
1461.572266	53468.226562
1460.509766	53980.882812
1459.446289	53837.148438
1458.383789	53684.054688
1457.320312	53582.738281
1456.256836	53735.335938
1455.193359	53342.605469
1454.128906	53633.832031
1453.065430	54000.132812
1452.000977	53537.089844
1450.936523	53903.269531
1449.872070	53776.199219
1448.806641	53961.421875
1447.742188	53721.707031
1446.676758	53747.277344
1445.611328	53641.433594
1444.545898	53812.464844
1443.479492	54288.367188
1442.414062	53614.925781
1441.347656	53558.414062
1440.281250	53954.390625
1439.214844	53473.570312
1438.147461	53531.941406
1437.081055	53473.132812
1436.013672	53493.996094
1434.946289	53702.230469
1433.878906	53795.640625
1432.811523	53432.425781
1431.743164	53703.765625
1430.675781	53567.734375
1429.607422	53511.316406
1428.539062	53319.207031
1427.469727	54013.789062
1426.401367	53784.234375
1425.332031	53571.125000
1424.262695	53547.480469
1423.193359	54152.679688
1422.124023	53626.421875
1421.053711	53953.300781
1419.984375	53296.421875
1418.914062	53522.789062
1417.843750	53543.539062
1416.772461	53337.769531
1415.702148	53454.269531
1414.630859	53871.851562
1413.559570	53465.410156
1412.488281	53565.480469
1411.416992	53548.859375
1410.345703	53448.265625
1409.273438	53506.300781
1408.201172	53517.671875
1407.128906	53531.371094
1406.056641	53656.949219
1404.983398	53286.070312
1403.911133	53681.941406
1402.837891	53502.222656
1401.764648	53655.660156
1400.691406	53636.699219
1399.617188	53643.359375
1398.542969	53412.550781
1397.469727	53307.515625
1396.395508	53342.148438
1395.320312	53397.710938
1394.246094	53667.277344
1393.170898	53597.152344
1392.096680	53243.332031
1391.020508	53663.906250
1389.945312	53858.832031
1388.870117	53082.128906
1387.793945	53493.203125
1386.717773	53406.906250
1385.641602	53478.609375
1384.565430	53763.960938
1383.489258	53598.699219
1382.412109	53115.414062
1381.334961	53600.308594
1380.257812	53154.328125
1379.180664	53847.882812
1378.103516	53518.019531
1377.025391	53271.777344
1375.947266	53276.109375
1374.869141	53043.910156
1373.791016	53558.328125
1372.712891	53398.019531
1371.633789	53573.812500
1370.555664	53216.589844
1369.476562	53288.097656
1368.396484	53218.281250
1367.317383	53206.382812
1366.237305	53558.023438
1365.158203	53397.898438
1364.078125	53258.660156
1362.997070	53376.351562
1361.916992	52672.582031
1360.835938	53303.917969
1359.755859	53389.152344
1358.674805	53199.152344
1357.593750	53036.964844
1356.511719	53492.078125
1355.430664	53089.507812
1354.348633	52811.875000
1353.266602	53132.765625
1352.184570	53217.906250
1351.101562	53141.332031
1350.019531	53304.953125
1348.936523	53646.292969
1347.853516	52955.632812
1346.770508	53315.375000
1345.686523	53271.148438
1344.603516	53178.488281
1343.519531	53627.949219
1342.435547	53090.125000
1341.351562	53283.476562
1340.267578	52872.707031
1339.182617	53474.027344
1338.097656	53298.449219
1337.012695	53159.796875
1335.927734	53544.171875
1334.842773	53520.695312
1333.756836	52905.343750
1332.670898	53503.691406
1331.584961	53328.281250
1330.499023	53709.964844
1329.413086	53021.371094
1328.326172	53416.773438
1327.239258	53478.453125
1326.152344	53073.179688
1325.065430	52842.832031
1323.978516	53019.539062
1322.890625	53290.433594
1321.803711	53175.085938
1320.715820	53280.394531
1319.626953	53468.375000
1318.539062	53162.378906
1317.450195	53221.687500
1316.362305	53382.011719
1315.273438	53246.097656
1314.183594	53225.003906
1313.094727	53040.964844
1312.004883	53274.628906
1310.916016	53134.230469
1309.826172	53546.714844
1308.735352	53316.871094
1307.645508	52832.570312
1306.554688	53111.906250
1305.464844	53106.894531
1304.374023	53333.363281
1303.282227	52922.730469
1302.191406	52936.078125
1301.099609	52974.617188
1300.008789	53097.875000
1298.916992	52808.929688
1297.824219	53032.902344
1296.732422	52874.535156
1295.639648	52922.191406
1294.546875	53093.390625
1293.454102	54145.285156
1292.361328	55985.914062
1291.268555	54564.792969
1290.174805	53002.421875
1289.081055	52780.238281
1287.987305	52884.976562
1286.893555	52672.031250
1285.799805	52977.808594
1284.705078	52991.074219
1283.610352	52526.980469
1282.515625	52976.476562
1281.420898	52727.164062
1280.325195	52911.660156
1279.230469	53000.230469
1278.134766	53285.011719
1277.039062	52832.757812
1275.942383	52770.738281
1274.846680	52811.363281
1273.750000	52701.476562
1272.653320	52422.917969
1271.556641	53186.164062
1270.459961	52581.710938
1269.363281	52800.058594
1268.265625	52339.417969
1267.167969	52478.000000
1266.070312	52955.859375
1264.972656	52686.703125
1263.874023	52169.492188
1262.775391	52544.714844
1261.676758	52528.375000
1260.578125	52650.832031
1259.479492	52245.464844
1258.379883	52511.218750
1257.281250	52795.066406
1256.181641	52742.304688
1255.082031	52639.550781
1253.981445	52625.472656
1252.881836	52359.152344
1251.781250	52731.371094
1250.680664	52526.457031
1249.580078	52335.246094
1248.479492	52232.664062
1247.377930	52665.921875
1246.276367	52638.218750
1245.174805	52499.316406
1244.073242	52435.343750
1242.971680	52809.257812
1241.869141	52014.847656
1240.766602	52345.605469
1239.664062	52268.093750
1238.561523	52501.199219
1237.458984	52289.945312
1236.355469	52269.136719
1235.251953	52468.117188
1234.148438	52540.160156
1233.044922	52433.238281
1231.941406	52738.511719
1230.836914	52577.246094
1229.732422	52363.972656
1228.627930	52211.878906
1227.523438	52415.128906
1226.417969	52428.250000
1225.313477	52314.679688
1224.208008	52734.921875
1223.102539	52533.140625
1221.996094	52281.691406
1220.890625	52502.777344
1219.784180	52667.281250
1218.677734	52481.468750
1217.571289	52580.390625
1216.464844	52532.445312
1215.357422	52714.882812
1214.250977	52813.703125
1213.143555	52524.167969
1212.036133	52474.003906
1210.927734	52509.613281
1209.820312	52468.492188
1208.711914	52813.160156
1207.603516	53035.898438
1206.495117	52830.066406
1205.386719	52599.503906
1204.277344	52797.355469
1203.167969	52724.656250
1202.058594	53037.339844
1200.949219	52786.617188
1199.839844	52520.218750
1198.729492	52600.773438
1197.619141	52805.148438
1196.508789	52448.824219
1195.398438	52452.800781
1194.288086	52681.843750
1193.176758	52701.527344
1192.065430	52784.195312
1190.954102	53071.531250
1189.842773	52850.476562
1188.730469	52357.414062
1187.619141	52891.968750
1186.506836	53165.582031
1185.394531	53070.515625
1184.281250	52741.792969
1183.168945	52754.671875
1182.055664	52691.171875
1180.942383	52924.136719
1179.829102	52503.609375
1178.715820	52586.105469
1177.601562	52879.558594
1176.488281	52878.917969
1175.374023	52716.726562
1174.258789	52857.441406
1173.144531	52829.886719
1172.029297	52968.281250
1170.915039	52615.601562
1169.799805	52982.636719
1168.684570	52724.214844
1167.568359	52979.046875
1166.453125	52765.523438
1165.336914	52303.425781
1164.220703	52602.980469
1163.103516	52938.253906
1161.987305	52505.476562
1160.870117	52484.730469
1159.752930	53135.394531
1158.635742	52792.316406
1157.518555	52789.417969
1156.401367	52934.148438
1155.283203	52844.000000
1154.165039	52794.132812
1153.046875	52511.777344
1151.928711	52470.921875
1150.809570	52378.679688
1149.690430	52445.109375
1148.571289	52690.230469
1147.452148	52553.320312
1146.333008	52425.390625
1145.212891	52286.343750
1144.093750	52638.457031
1142.973633	52488.253906
1141.852539	52306.863281
1140.732422	52312.953125
1139.611328	51971.042969
1138.490234	52492.386719
1137.369141	52282.128906
1136.248047	52294.894531
1135.126953	52448.089844
1134.004883	52463.042969
1132.882812	52210.601562
1131.760742	52212.222656
1130.638672	51930.953125
1129.515625	52322.355469
1128.393555	51869.714844
1127.270508	52227.585938
1126.147461	52100.093750
1125.023438	52255.273438
1123.900391	52506.074219
1122.776367	52311.855469
1121.652344	52099.910156
1120.528320	52108.199219
1119.403320	51938.609375
1118.279297	52100.304688
1117.154297	52301.945312
1116.029297	51881.300781
1114.904297	51934.042969
1113.778320	52153.371094
1112.653320	52268.226562
1111.527344	52038.855469
1110.401367	52220.292969
1109.274414	52543.722656
1108.148438	51832.820312
1107.021484	52253.835938
1105.894531	51907.078125
1104.767578	52347.882812
1103.640625	52429.253906
1102.512695	51887.523438
1101.385742	51913.523438
1100.257812	51961.671875
1099.128906	51976.562500
1098.000977	52357.035156
1096.872070	52125.941406
1095.744141	51923.726562
1094.615234	52328.351562
1093.485352	51858.265625
1092.356445	51992.683594
1091.226562	52191.230469
1090.096680	52048.925781
1088.966797	52090.300781
1087.836914	52193.601562
1086.706055	52336.667969
1085.576172	52433.246094
1084.445312	51977.070312
1083.314453	52151.039062
1082.182617	51935.972656
1081.051758	52043.593750
1079.919922	52354.417969
1078.788086	52057.699219
1077.656250	52246.941406
1076.523438	52003.339844
1075.391602	52146.160156
1074.258789	52167.523438
1073.125977	52405.148438
1071.993164	51742.468750
1070.859375	52079.351562
1069.726562	51820.593750
1068.592773	52346.976562
1067.458984	51845.734375
1066.324219	51966.308594
1065.190430	51934.765625
1064.055664	51793.046875
1062.920898	52911.601562
1061.786133	52481.191406
1060.650391	52837.183594
1059.515625	52343.078125
1058.379883	52474.402344
1057.244141	52231.476562
1056.108398	52221.917969
1054.971680	52130.945312
1053.835938	52416.195312
1052.699219	52780.527344
1051.562500	52331.035156
1050.424805	51894.898438
1049.288086	51993.113281
1048.150391	52093.492188
1047.012695	52264.152344
1045.875000	52403.988281
1044.737305	52051.699219
1043.598633	52290.355469
1042.459961	52254.425781
1041.321289	52053.843750
1040.182617	52217.726562
1039.043945	52052.332031
1037.904297	52009.882812
1036.764648	52281.175781
1035.625000	52071.988281
1034.485352	52336.585938
1033.344727	52445.406250
1032.205078	52142.023438
1031.064453	52487.558594
1029.923828	52072.507812
1028.782227	52128.699219
1027.641602	52340.406250
1026.500000	51765.714844
1025.358398	52040.910156
1024.216797	52377.312500
1023.074219	52253.875000
1021.932617	52377.808594
1020.790039	51963.367188
1019.647461	52039.167969
1018.503906	52075.562500
1017.361328	52105.378906
1016.217773	52248.894531
1015.074219	52479.800781
1013.930664	52019.882812
1012.787109	52414.656250
1011.642578	52027.019531
1010.498047	52388.871094
1009.353516	52180.492188
1008.208984	52336.890625
1007.064453	51838.187500
1005.918945	51972.757812
1004.773438	52406.308594
1003.627930	51763.828125
1002.482422	51987.789062
1001.335938	52039.328125
1000.189453	52007.964844
999.043945	52380.039062
997.896484	52124.050781
996.750000	52247.453125
995.602539	52274.910156
994.456055	52304.539062
993.308594	52162.035156
992.160156	52019.578125
991.012695	52443.425781
989.864258	52213.867188
988.715820	52500.363281
987.567383	52331.820312
986.418945	52330.914062
985.269531	52049.312500
984.121094	52548.816406
982.971680	52073.691406
981.821289	52116.316406
980.671875	52213.281250
979.521484	52321.078125
978.372070	52070.207031
977.221680	52217.097656
976.070312	52524.714844
974.919922	52547.644531
973.768555	52385.953125
972.617188	52081.000000
971.465820	52314.589844
970.314453	52406.992188
969.162109	52401.699219
968.009766	52342.156250
966.857422	52289.140625
965.705078	52494.265625
964.552734	52957.390625
963.399414	52889.105469
962.246094	52291.878906
961.092773	52570.535156
959.939453	52725.566406
958.785156	52373.527344
957.631836	52730.000000
956.477539	52529.699219
955.322266	52998.609375
954.167969	52590.476562
953.012695	52277.742188
951.858398	52889.277344
950.703125	52626.367188
949.546875	52352.734375
948.391602	52626.464844
947.235352	52545.410156
946.079102	52609.253906
944.922852	52242.851562
943.766602	52434.257812
942.609375	52614.781250
941.452148	52365.253906
940.294922	52359.933594
939.137695	52531.726562
937.980469	52381.679688
936.822266	52525.332031
935.664062	53027.281250
934.505859	52611.742188
933.347656	52640.894531
932.188477	52277.359375
931.030273	52662.488281
929.871094	52469.460938
928.710938	52220.441406
927.551758	52400.542969
926.391602	52526.687500
925.232422	52607.523438
924.071289	52554.734375
922.911133	52193.882812
921.750977	51904.250000
920.589844	51985.132812
919.428711	51921.718750
918.267578	52245.828125
917.105469	52356.730469
915.944336	52435.308594
914.782227	52253.511719
913.620117	52499.867188
912.458008	52432.117188
911.294922	52297.722656
910.132812	52724.527344
908.969727	52179.550781
907.806641	51787.367188
906.642578	52218.324219
905.479492	52311.812500
904.315430	52478.300781
903.151367	52090.636719
901.987305	52147.589844
900.822266	52144.406250
899.657227	52081.125000
898.493164	52219.589844
897.327148	52109.109375
896.162109	51968.628906
894.997070	52117.757812
893.831055	51825.066406
892.665039	51942.000000
891.499023	51940.988281
890.332031	52130.722656
889.165039	51889.664062
887.999023	52306.437500
886.831055	51870.503906
885.664062	51863.066406
884.497070	51767.839844
883.329102	52077.269531
882.161133	51802.230469
880.993164	52197.140625
879.824219	51866.542969
878.656250	52145.769531
877.487305	52029.187500
876.318359	51705.214844
875.148438	52232.328125
873.979492	52201.300781
872.809570	51777.011719
871.639648	51874.289062
870.469727	52172.363281
869.298828	51793.167969
868.128906	52138.128906
866.958008	51803.917969
865.787109	52088.964844
864.616211	52066.531250
863.444336	52263.917969
862.272461	52363.078125
861.100586	52110.187500
859.928711	52463.164062
858.756836	52191.152344
857.583984	52187.894531
856.411133	52086.574219
855.238281	52200.562500
854.065430	52205.824219
852.891602	52445.449219
851.718750	52576.343750
850.544922	52281.218750
849.370117	52233.214844
848.196289	52438.585938
847.021484	52218.144531
845.847656	52576.671875
844.671875	52394.582031
843.497070	52325.316406
842.322266	52309.250000
841.146484	52580.289062
839.970703	52610.957031
838.794922	52522.558594
837.618164	52721.136719
836.442383	53019.515625
835.265625	52699.488281
834.088867	52572.890625
832.911133	52650.238281
831.734375	52871.953125
830.556641	52603.136719
829.378906	52752.601562
828.201172	52127.343750
827.023438	52652.425781
825.844727	53088.203125
824.666016	53101.699219
823.487305	52884.023438
822.308594	52649.464844
821.128906	52546.425781
819.949219	52714.738281
818.769531	52753.710938
817.589844	52235.414062
816.410156	52905.750000
815.229492	52590.945312
814.048828	53008.964844
812.868164	52685.781250
811.687500	52676.015625
810.505859	53172.085938
809.324219	52880.789062
808.142578	52890.023438
806.960938	53119.246094
805.779297	53263.781250
804.596680	52947.300781
803.414062	53303.222656
802.231445	52836.769531
801.047852	53089.023438
799.865234	52770.683594
798.681641	53020.738281
797.498047	52803.910156
796.314453	53212.242188
795.129883	52503.503906
793.946289	52818.851562
792.761719	52815.382812
791.577148	53046.144531
790.391602	53019.417969
789.207031	52484.335938
788.021484	52984.976562
786.835938	52958.269531
785.649414	52646.960938
784.463867	52786.843750
783.277344	52886.632812
782.090820	53108.589844
780.904297	52578.378906
779.717773	52918.257812
778.530273	52598.863281
777.342773	53083.886719
776.155273	52707.738281
774.967773	53251.488281
773.779297	52909.113281
772.590820	52611.042969
771.402344	52599.167969
770.213867	53129.906250
769.025391	52670.042969
767.835938	52706.507812
766.646484	52469.699219
765.457031	52951.718750
764.267578	52885.144531
763.077148	52869.015625
761.886719	52957.906250
760.696289	53002.664062
759.505859	52413.308594
758.314453	52607.191406
757.124023	52622.597656
755.932617	53036.703125
754.741211	52693.246094
753.548828	52970.832031
752.357422	53218.949219
751.165039	52672.242188
749.972656	52794.527344
748.779297	53017.375000
747.586914	52877.578125
746.393555	52538.769531
745.200195	52870.476562
744.006836	53103.609375
742.813477	52783.789062
741.619141	53117.347656
740.424805	52973.488281
739.230469	53166.652344
738.036133	52955.863281
736.840820	53159.414062
735.645508	52563.804688
734.450195	53101.980469
733.254883	52701.066406
732.058594	53000.675781
730.863281	52762.964844
729.666992	52797.031250
728.470703	53154.953125
727.273438	52812.882812
726.077148	52924.195312
724.879883	52962.371094
723.682617	52967.121094
722.484375	52911.328125
721.287109	52713.625000
720.088867	52925.007812
718.890625	52769.097656
717.692383	52473.484375
716.493164	53368.863281
715.294922	52823.015625
714.095703	53334.382812
712.896484	53132.675781
711.696289	53189.460938
710.497070	53079.531250
709.296875	52905.058594
708.096680	52857.703125
706.895508	53168.558594
705.695312	53314.804688
704.494141	53467.238281
703.292969	53307.414062
702.091797	53018.625000
700.890625	53327.066406
699.688477	53610.425781
698.486328	53132.472656
697.284180	53569.636719
696.082031	52971.281250
694.878906	53246.171875
693.675781	53581.230469
692.472656	53336.433594
691.269531	53467.750000
690.065430	53208.527344
688.862305	53186.136719
687.658203	53126.382812
686.453125	53143.453125
685.249023	53274.671875
684.043945	53231.527344
682.838867	53534.878906
681.633789	53226.175781
680.428711	53124.984375
679.222656	53473.796875
678.017578	53248.199219
676.811523	53565.765625
675.604492	53182.722656
674.398438	53539.542969
673.191406	53471.539062
671.984375	53213.000000
670.777344	53511.625000
669.570312	53470.570312
668.362305	53023.789062
667.154297	53278.808594
665.946289	53297.824219
664.738281	53287.867188
663.529297	53186.894531
662.320312	53398.250000
661.111328	53187.695312
659.902344	53649.125000
658.692383	53182.289062
657.483398	53414.144531
656.273438	53470.281250
655.063477	52991.335938
653.852539	53254.070312
652.641602	53374.214844
651.431641	53331.199219
650.219727	53187.046875
649.008789	53400.007812
647.796875	52919.535156
646.585938	53111.828125
645.374023	53172.027344
644.161133	53160.019531
642.949219	53112.960938
641.736328	52900.988281
640.523438	53369.296875
639.310547	53052.246094
638.096680	53095.890625
636.883789	53106.558594
635.669922	53108.976562
634.456055	53057.855469
633.241211	52839.972656
632.027344	52745.683594
630.812500	52896.347656
629.597656	52765.039062
628.382812	52607.031250
627.166992	53134.054688
625.951172	53035.675781
624.735352	52532.253906
623.519531	53007.593750
622.303711	53075.773438
621.086914	52856.218750
619.870117	52616.195312
618.653320	53146.621094
617.435547	52528.710938
616.218750	52904.933594
615.000977	52823.160156
613.783203	52876.902344
612.564453	52981.929688
611.346680	52848.882812
610.127930	52750.761719
608.909180	52837.285156
607.690430	53046.820312
606.470703	53002.023438
605.250977	52553.375000
604.031250	52617.312500
602.811523	53130.019531
601.591797	52663.152344
600.371094	53192.042969
599.150391	52967.015625
597.929688	53141.382812
596.708984	52971.722656
595.487305	52906.519531
594.265625	53195.402344
593.043945	52960.343750
591.822266	52954.503906
590.599609	52934.343750
589.376953	53155.507812
588.154297	53241.636719
586.931641	52902.511719
585.708984	53193.042969
584.485352	53248.457031
583.261719	52791.015625
582.038086	53226.433594
580.813477	53416.597656
579.589844	53324.894531
578.365234	52926.976562
577.140625	53192.609375
575.915039	53125.480469
574.690430	53313.433594
573.464844	53058.613281
572.239258	53293.417969
571.012695	53195.718750
569.787109	53438.558594
568.560547	53446.871094
567.333984	53069.960938
566.107422	53371.777344
564.879883	52842.214844
563.652344	52771.179688
562.425781	53643.132812
561.197266	53329.652344
559.969727	53201.550781
558.741211	53211.910156
557.512695	53391.179688
556.284180	53134.941406
555.055664	53198.195312
553.826172	52795.640625
552.596680	53137.527344
551.367188	53662.273438
550.137695	52674.402344
548.907227	52861.644531
547.676758	53140.257812
546.446289	53272.484375
545.215820	52866.367188
543.985352	53520.535156
542.753906	52645.464844
541.522461	52828.429688
540.291016	52901.714844
539.058594	52358.039062
537.826172	52735.730469
536.593750	53078.789062
535.361328	53097.199219
534.128906	52564.023438
532.895508	52740.660156
531.662109	52694.250000
530.428711	52410.730469
529.195312	52386.683594
527.960938	52828.609375
526.726562	52577.625000
525.492188	52251.800781
524.257812	52446.472656
523.022461	52406.234375
521.788086	52157.531250
520.552734	52311.628906
519.316406	52226.917969
518.081055	52162.464844
516.844727	52314.445312
515.608398	52597.804688
514.372070	52608.117188
513.134766	52082.757812
511.898438	52115.386719
510.661133	52457.160156
509.423828	52715.968750
508.185547	52326.304688
506.947266	52473.964844
505.709961	52227.847656
504.470703	51832.429688
503.232422	52440.273438
501.993164	52069.179688
500.754883	52186.472656
499.515625	52136.292969
498.275391	51973.187500
497.036133	52864.734375
495.795898	52060.445312
494.555664	52451.750000
493.314453	52121.429688
492.074219	52309.066406
490.833008	52514.757812
489.591797	52329.621094
488.350586	52170.734375
487.108398	52293.781250
485.867188	52289.957031
484.625000	52179.460938
483.382812	52151.507812
482.139648	52493.746094
480.896484	52598.500000
479.653320	52188.363281
478.410156	52838.039062
477.166992	52335.531250
475.922852	52645.242188
474.678711	52351.953125
473.434570	52412.394531
472.190430	52547.140625
470.945312	52372.527344
469.700195	52527.304688
468.455078	52673.988281
467.209961	52370.972656
465.963867	52355.066406
464.718750	52828.761719
463.472656	52656.285156
462.225586	52128.843750
460.979492	52112.984375
459.732422	52061.035156
458.485352	52257.683594
457.238281	52402.140625
455.990234	52133.738281
454.742188	52626.777344
453.494141	52504.656250
452.246094	51865.863281
450.998047	52248.535156
449.749023	52252.675781
448.500000	52202.765625
447.250977	52044.808594
446.000977	52117.007812
444.751953	52049.140625
443.501953	51769.285156
442.251953	52041.464844
441.000977	51801.699219
439.750977	51709.945312
438.500000	52085.902344
437.249023	51678.402344
435.997070	51784.507812
434.746094	51556.988281
433.494141	51611.144531
432.242188	51571.429688
430.989258	51865.121094
429.737305	51517.992188
428.484375	51524.210938
427.231445	51261.070312
425.978516	51410.957031
424.724609	51562.781250
423.470703	51495.195312
422.216797	51858.273438
420.962891	51427.867188
419.708008	51475.929688
418.454102	51091.582031
417.199219	51454.453125
415.943359	51442.718750
414.688477	51287.605469
413.432617	51482.972656
412.176758	51315.960938
410.920898	50852.453125
409.664062	51286.578125
408.408203	51268.910156
407.151367	51615.261719
405.893555	51414.562500
404.636719	51015.089844
403.378906	51619.734375
402.121094	50963.960938
400.863281	50918.535156
399.605469	51347.996094
398.346680	51244.898438
397.087891	51044.515625
395.829102	51020.945312
394.570312	51106.574219
393.310547	51337.078125
392.050781	51146.742188
390.791016	51119.187500
389.531250	51680.863281
388.270508	50972.863281
387.009766	51318.183594
385.749023	51209.316406
384.488281	51385.949219
383.226562	51281.070312
381.964844	51122.718750
380.703125	51388.421875
379.441406	51434.140625
378.178711	50933.214844
376.916016	51087.906250
375.653320	50715.914062
374.390625	51209.058594
373.126953	51033.105469
371.864258	50995.722656
370.599609	51239.265625
369.335938	50998.125000
368.072266	50770.921875
366.807617	51004.472656
365.542969	51042.234375
364.277344	51117.531250
363.012695	51244.171875
361.747070	51422.128906
360.481445	51025.214844
359.215820	51521.101562
357.949219	51542.910156
356.683594	51852.933594
355.416992	52194.417969
354.149414	52547.609375
352.882812	52938.152344
351.615234	53016.867188
350.347656	53178.382812
349.080078	53497.585938
347.811523	53954.675781
346.543945	54452.980469
345.275391	54797.371094
344.005859	55027.347656
342.737305	54624.855469
341.467773	53355.867188
340.198242	52431.980469
338.928711	52219.218750
337.659180	51490.781250
336.388672	50929.910156
335.118164	50796.257812
333.847656	50926.285156
332.576172	50096.351562
331.305664	50550.957031
330.034180	50118.589844
328.761719	50234.878906
327.490234	49926.562500
326.217773	50243.285156
324.945312	49665.902344
323.672852	50122.019531
322.400391	50012.320312
321.126953	50415.175781
319.853516	50193.546875
318.580078	50238.957031
317.305664	49883.988281
316.032227	49986.339844
314.757812	49735.527344
313.483398	50094.808594
312.208008	49504.800781
310.933594	49656.152344
309.658203	49701.589844
308.382812	50082.152344
307.106445	49592.527344
305.830078	49498.839844
304.554688	49563.847656
303.277344	49826.632812
302.000977	49529.308594
300.723633	49079.394531
299.446289	49373.429688
298.168945	49853.261719
296.891602	49622.671875
295.613281	49699.292969
294.334961	49335.816406
293.056641	50370.632812
291.778320	50292.605469
290.499023	50679.828125
289.219727	50249.988281
287.940430	50367.417969
286.661133	50488.710938
285.380859	49803.269531
284.100586	50178.488281
282.820312	50135.730469
281.539062	50075.417969
280.258789	49948.765625
278.977539	49492.378906
277.696289	49358.078125
276.414062	49596.394531
275.132812	49456.269531
273.850586	49464.386719
272.568359	49238.558594
271.285156	49367.550781
270.002930	49566.652344
268.719727	49948.820312
267.435547	50459.410156
266.152344	50336.820312
264.868164	51522.839844
263.583984	52429.996094
262.299805	53580.121094
261.015625	55827.437500
259.730469	58970.898438
258.445312	62846.578125
257.160156	66279.250000
255.875000	69166.101562
254.588867	69302.609375
253.302734	67073.296875
252.016602	63822.523438
250.730469	60061.929688
249.443359	56798.187500
248.156250	54617.628906
246.869141	53210.847656
245.581055	51808.484375
244.293945	50841.511719
243.005859	50086.468750
241.717773	49661.617188
240.428711	49267.964844
239.139648	48897.738281
237.850586	48446.195312
236.561523	47909.500000
235.272461	48088.398438
233.982422	47842.726562
232.692383	47428.542969
231.402344	47369.097656
230.112305	47106.261719
228.821289	46895.820312
227.530273	46970.125000
226.239258	46794.636719
224.947266	46702.449219
223.655273	46521.265625
222.363281	46415.617188
221.071289	46389.328125
219.779297	46094.179688
218.486328	46220.738281
217.193359	45979.871094
215.900391	46079.332031
214.606445	46126.566406
213.313477	45588.253906
212.019531	45633.628906
210.724609	45814.203125
209.430664	45658.652344
208.135742	45566.882812
206.840820	45662.414062
205.545898	45099.699219
204.250000	45395.984375
202.954102	44964.734375
201.658203	44776.718750
200.362305	44986.093750
199.066406	44784.640625
197.769531	44631.464844
196.472656	44376.179688
195.174805	44664.480469
193.877930	44251.277344
192.580078	44208.125000
191.282227	44272.847656
189.984375	44129.562500
188.685547	44250.109375
187.386719	44255.109375
186.087891	44244.703125
184.789062	43857.136719
183.489258	43667.878906
182.189453	43940.351562
180.889648	43891.542969
179.589844	43881.207031
178.289062	43930.472656
176.988281	43970.101562
175.687500	43704.160156
174.386719	43517.093750
173.084961	43531.800781
171.783203	43665.578125
170.481445	43605.359375
169.179688	43704.511719
167.876953	43225.843750
166.574219	43515.023438
165.271484	43381.953125
163.968750	43329.507812
162.665039	43081.437500
161.361328	43621.632812
160.057617	43413.859375
158.752930	43165.910156
157.449219	42826.058594
156.144531	43042.039062
154.838867	42890.089844
153.534180	42669.238281
152.228516	42973.210938
150.922852	42497.761719
149.617188	42702.101562
148.310547	42357.035156
147.004883	42438.843750
145.698242	42421.128906
144.390625	42099.265625
143.083984	42506.203125
141.776367	42167.234375
140.468750	42176.339844
139.161133	41971.359375
137.852539	41865.832031
136.543945	41817.664062
135.235352	41641.523438
133.926758	41245.796875
132.617188	40932.335938
131.308594	40720.179688
129.998047	40074.792969
128.688477	39742.648438
127.377930	39284.687500
126.068359	38928.015625
124.756836	38054.570312
123.446289	37183.371094
122.134766	36808.234375
120.823242	36019.574219
119.511719	34718.515625
