#Wave		#Intensity
1698.992188	34300.976562
1697.971680	34342.625000
1696.951172	34309.601562
1695.930664	34418.632812
1694.909180	34228.898438
1693.887695	34301.179688
1692.867188	34241.257812
1691.844727	34129.960938
1690.823242	33972.214844
1689.801758	34494.628906
1688.779297	34483.628906
1687.756836	34181.609375
1686.734375	34136.437500
1685.711914	33934.816406
1684.689453	34571.644531
1683.666016	34282.039062
1682.643555	34283.296875
1681.620117	34125.761719
1680.596680	34300.464844
1679.572266	34318.808594
1678.548828	34095.421875
1677.524414	34067.410156
1676.500000	34666.691406
1675.475586	34216.402344
1674.451172	34320.136719
1673.426758	34189.640625
1672.401367	34205.535156
1671.375977	34401.878906
1670.350586	34298.253906
1669.325195	34348.246094
1668.299805	34354.343750
1667.274414	34362.875000
1666.248047	34276.382812
1665.221680	34121.707031
1664.195312	33989.003906
1663.168945	34530.894531
1662.141602	34283.730469
1661.115234	34231.402344
1660.087891	33974.640625
1659.060547	34302.000000
1658.033203	34373.773438
1657.004883	34119.554688
1655.977539	34303.210938
1654.949219	34049.089844
1653.920898	34120.851562
1652.892578	34163.417969
1651.863281	34205.964844
1650.834961	34097.835938
1649.805664	33929.003906
1648.776367	34105.171875
1647.747070	34317.703125
1646.717773	34114.921875
1645.688477	33873.367188
1644.658203	34003.292969
1643.627930	33790.964844
1642.597656	33906.292969
1641.567383	34079.808594
1640.537109	34022.820312
1639.505859	34164.722656
1638.474609	34178.058594
1637.444336	33961.066406
1636.412109	33749.000000
1635.380859	33713.925781
1634.349609	34037.480469
1633.317383	33794.015625
1632.285156	34076.261719
1631.252930	33907.949219
1630.220703	34161.015625
1629.187500	33997.585938
1628.155273	34066.585938
1627.122070	33951.628906
1626.088867	33645.558594
1625.055664	33741.191406
1624.021484	33853.718750
1622.988281	33983.132812
1621.954102	33684.523438
1620.919922	33593.921875
1619.885742	33716.058594
1618.851562	33869.570312
1617.816406	33957.785156
1616.782227	33536.230469
1615.747070	33800.792969
1614.711914	33476.011719
1613.675781	33689.781250
1612.640625	33519.636719
1611.604492	33784.007812
1610.568359	33654.925781
1609.532227	33723.738281
1608.496094	34074.773438
1607.459961	33697.277344
1606.422852	33442.898438
1605.385742	33427.308594
1604.349609	33650.375000
1603.311523	33911.925781
1602.274414	33831.191406
1601.237305	33545.687500
1600.199219	33551.765625
1599.161133	33745.703125
1598.123047	33734.882812
1597.084961	33603.683594
1596.045898	33990.085938
1595.006836	33481.015625
1593.968750	33600.191406
1592.929688	33531.656250
1591.889648	33511.257812
1590.850586	33863.652344
1589.810547	33783.078125
1588.771484	33805.917969
1587.731445	33727.785156
1586.690430	33512.691406
1585.650391	33348.128906
1584.610352	33853.929688
1583.569336	33802.261719
1582.528320	33712.187500
1581.487305	33703.785156
1580.445312	33683.378906
1579.404297	33523.753906
1578.362305	33414.585938
1577.320312	33595.800781
1576.278320	33738.562500
1575.236328	33497.484375
1574.194336	33585.046875
1573.151367	33502.335938
1572.108398	33779.261719
1571.065430	33854.738281
1570.022461	33817.554688
1568.979492	33936.125000
1567.935547	33688.117188
1566.891602	33955.171875
1565.847656	34013.781250
1564.803711	33576.726562
1563.759766	34011.238281
1562.714844	33638.960938
1561.669922	33774.160156
1560.625977	33598.257812
1559.580078	33848.242188
1558.535156	33741.753906
1557.490234	33587.468750
1556.444336	33770.371094
1555.398438	33936.468750
1554.352539	33959.101562
1553.306641	33589.808594
1552.259766	33772.574219
1551.213867	37106.179688
1550.166992	38169.582031
1549.120117	33785.550781
1548.073242	34204.515625
1547.025391	33518.074219
1545.978516	33944.093750
1544.930664	33737.589844
1543.882812	33488.210938
1542.834961	33708.855469
1541.786133	33850.714844
1540.738281	34011.597656
1539.689453	33931.617188
1538.640625	33889.808594
1537.591797	33797.960938
1536.542969	33665.632812
1535.493164	33678.687500
1534.443359	33894.207031
1533.393555	33773.835938
1532.343750	33565.406250
1531.293945	33640.363281
1530.244141	33698.625000
1529.193359	34018.660156
1528.142578	33474.816406
1527.091797	34082.644531
1526.041016	33362.960938
1524.989258	33647.148438
1523.938477	33503.226562
1522.886719	33677.925781
1521.834961	33797.886719
1520.783203	33962.960938
1519.730469	33802.449219
1518.678711	33687.128906
1517.625977	33619.355469
1516.573242	33580.101562
1515.520508	33935.011719
1514.466797	33708.167969
1513.414062	33597.707031
1512.360352	33788.675781
1511.306641	33844.328125
1510.252930	33605.796875
1509.199219	33507.289062
1508.144531	33669.671875
1507.090820	33727.671875
1506.036133	33671.859375
1504.981445	33691.910156
1503.925781	33394.410156
1502.871094	33971.292969
1501.815430	33522.234375
1500.759766	33712.824219
1499.704102	33200.035156
1498.648438	33849.929688
1497.592773	33441.453125
1496.536133	33454.406250
1495.479492	33464.988281
1494.422852	33073.355469
1493.366211	33717.957031
1492.308594	33470.687500
1491.251953	33412.675781
1490.194336	33333.406250
1489.136719	33429.085938
1488.079102	33323.843750
1487.020508	33114.667969
1485.962891	33288.292969
1484.904297	33622.484375
1483.845703	33564.511719
1482.787109	33282.234375
1481.728516	33262.113281
1480.668945	33508.726562
1479.609375	33200.644531
1478.549805	33270.210938
1477.490234	33306.718750
1476.430664	33081.394531
1475.370117	33141.503906
1474.310547	33239.316406
1473.250000	33124.921875
1472.189453	32961.066406
1471.127930	33294.519531
1470.067383	33253.214844
1469.005859	33223.703125
1467.944336	33319.031250
1466.882812	33315.417969
1465.821289	33210.562500
1464.759766	33176.363281
1463.697266	33033.906250
1462.634766	33195.070312
1461.572266	33290.292969
1460.509766	33293.738281
1459.446289	33033.757812
1458.383789	33187.746094
1457.320312	33106.562500
1456.256836	33138.242188
1455.193359	32648.138672
1454.128906	32607.039062
1453.065430	33115.726562
1452.000977	32750.386719
1450.936523	33263.562500
1449.872070	33100.269531
1448.806641	33110.769531
1447.742188	32905.308594
1446.676758	33098.898438
1445.611328	33153.972656
1444.545898	33028.375000
1443.479492	32952.082031
1442.414062	32868.781250
1441.347656	32949.644531
1440.281250	32960.144531
1439.214844	33139.410156
1438.147461	33086.593750
1437.081055	32804.164062
1436.013672	32840.449219
1434.946289	33071.132812
1433.878906	33322.804688
1432.811523	33033.507812
1431.743164	32910.527344
1430.675781	32949.093750
1429.607422	32982.964844
1428.539062	32890.472656
1427.469727	33020.253906
1426.401367	32672.839844
1425.332031	33223.546875
1424.262695	32967.402344
1423.193359	32863.300781
1422.124023	32920.507812
1421.053711	32634.175781
1419.984375	32647.007812
1418.914062	32891.097656
1417.843750	32873.515625
1416.772461	32876.953125
1415.702148	32555.855469
1414.630859	32879.148438
1413.559570	32910.585938
1412.488281	32895.343750
1411.416992	32700.453125
1410.345703	32888.191406
1409.273438	32970.906250
1408.201172	32678.169922
1407.128906	32940.410156
1406.056641	32556.871094
1404.983398	32970.523438
1403.911133	32855.082031
1402.837891	33186.988281
1401.764648	32857.250000
1400.691406	32685.992188
1399.617188	32708.058594
1398.542969	32711.492188
1397.469727	32870.875000
1396.395508	32732.312500
1395.320312	32558.898438
1394.246094	32725.197266
1393.170898	32772.808594
1392.096680	32927.378906
1391.020508	32540.138672
1389.945312	32671.443359
1388.870117	32960.753906
1387.793945	32815.390625
1386.717773	32983.750000
1385.641602	32810.558594
1384.565430	32507.361328
1383.489258	32698.900391
1382.412109	32843.933594
1381.334961	32766.062500
1380.257812	32535.035156
1379.180664	32680.015625
1378.103516	32959.507812
1377.025391	32965.175781
1375.947266	32351.591797
1374.869141	32688.960938
1373.791016	32453.550781
1372.712891	32728.191406
1371.633789	32703.759766
1370.555664	32364.197266
1369.476562	32416.289062
1368.396484	32426.667969
1367.317383	32501.886719
1366.237305	32597.917969
1365.158203	32413.785156
1364.078125	32486.648438
1362.997070	32751.566406
1361.916992	32794.257812
1360.835938	32517.681641
1359.755859	32442.433594
1358.674805	32473.591797
1357.593750	32368.318359
1356.511719	32387.916016
1355.430664	32865.152344
1354.348633	32390.113281
1353.266602	32518.287109
1352.184570	32440.814453
1351.101562	32016.914062
1350.019531	32399.103516
1348.936523	32559.501953
1347.853516	32671.363281
1346.770508	32469.292969
1345.686523	32214.218750
1344.603516	32259.169922
1343.519531	32317.945312
1342.435547	32452.806641
1341.351562	32283.232422
1340.267578	32535.630859
1339.182617	32227.794922
1338.097656	32256.554688
1337.012695	32239.216797
1335.927734	32410.798828
1334.842773	32609.960938
1333.756836	32412.927734
1332.670898	32303.462891
1331.584961	31963.816406
1330.499023	32301.017578
1329.413086	32203.134766
1328.326172	31964.927734
1327.239258	32071.888672
1326.152344	32335.216797
1325.065430	32025.818359
1323.978516	32355.738281
1322.890625	32117.710938
1321.803711	32387.730469
1320.715820	32460.019531
1319.626953	31806.226562
1318.539062	32441.410156
1317.450195	32033.613281
1316.362305	32461.849609
1315.273438	31978.423828
1314.183594	32179.251953
1313.094727	32148.195312
1312.004883	31993.232422
1310.916016	32244.417969
1309.826172	31915.154297
1308.735352	32326.806641
1307.645508	32316.382812
1306.554688	32211.960938
1305.464844	31779.783203
1304.374023	31916.136719
1303.282227	31892.039062
1302.191406	31977.917969
1301.099609	32036.277344
1300.008789	32149.578125
1298.916992	31864.417969
1297.824219	31806.003906
1296.732422	32106.974609
1295.639648	31918.089844
1294.546875	32081.640625
1293.454102	31911.128906
1292.361328	31784.134766
1291.268555	31675.480469
1290.174805	31425.101562
1289.081055	31771.472656
1287.987305	32026.291016
1286.893555	32006.789062
1285.799805	31943.880859
1284.705078	31798.755859
1283.610352	31843.253906
1282.515625	31625.123047
1281.420898	31977.859375
1280.325195	31864.785156
1279.230469	31507.542969
1278.134766	32218.365234
1277.039062	31516.679688
1275.942383	31672.935547
1274.846680	31464.224609
1273.750000	31650.074219
1272.653320	31797.097656
1271.556641	31627.224609
1270.459961	31894.984375
1269.363281	31440.324219
1268.265625	31450.582031
1267.167969	31513.222656
1266.070312	31655.548828
1264.972656	31529.138672
1263.874023	31578.068359
1262.775391	31670.226562
1261.676758	31764.625000
1260.578125	31246.927734
1259.479492	31493.783203
1258.379883	31642.746094
1257.281250	31307.275391
1256.181641	31247.037109
1255.082031	31214.099609
1253.981445	31403.910156
1252.881836	31334.593750
1251.781250	31637.912109
1250.680664	31475.441406
1249.580078	31319.839844
1248.479492	31411.808594
1247.377930	31158.646484
1246.276367	31214.289062
1245.174805	31499.136719
1244.073242	31250.630859
1242.971680	31074.812500
1241.869141	31518.308594
1240.766602	31601.042969
1239.664062	31318.681641
1238.561523	31428.625000
1237.458984	31443.328125
1236.355469	31310.716797
1235.251953	31300.509766
1234.148438	31469.273438
1233.044922	31103.427734
1231.941406	31190.636719
1230.836914	31454.421875
1229.732422	31231.392578
1228.627930	31347.951172
1227.523438	31283.427734
1226.417969	31300.378906
1225.313477	31244.935547
1224.208008	31178.199219
1223.102539	31104.703125
1221.996094	31162.367188
1220.890625	31120.544922
1219.784180	31354.468750
1218.677734	31172.523438
1217.571289	31273.052734
1216.464844	31459.382812
1215.357422	31358.816406
1214.250977	31296.673828
1213.143555	31241.324219
1212.036133	31280.798828
1210.927734	31728.742188
1209.820312	31323.597656
1208.711914	31214.132812
1207.603516	31562.595703
1206.495117	31261.435547
1205.386719	31361.732422
1204.277344	31374.072266
1203.167969	31460.787109
1202.058594	31633.105469
1200.949219	31086.605469
1199.839844	31335.517578
1198.729492	31016.751953
1197.619141	31364.667969
1196.508789	31286.921875
1195.398438	31218.207031
1194.288086	31574.896484
1193.176758	31233.867188
1192.065430	30944.708984
1190.954102	31128.041016
1189.842773	31367.529297
1188.730469	31235.906250
1187.619141	31122.312500
1186.506836	31692.099609
1185.394531	31387.431641
1184.281250	31482.841797
1183.168945	31593.941406
1182.055664	31240.037109
1180.942383	31319.697266
1179.829102	31145.599609
1178.715820	31121.976562
1177.601562	31111.828125
1176.488281	30917.662109
1175.374023	31253.087891
1174.258789	31245.160156
1173.144531	31111.630859
1172.029297	31489.441406
1170.915039	31223.628906
1169.799805	31368.142578
1168.684570	31411.744141
1167.568359	31314.152344
1166.453125	31364.466797
1165.336914	31349.798828
1164.220703	30945.433594
1163.103516	31011.458984
1161.987305	30947.603516
1160.870117	31389.660156
1159.752930	31160.142578
1158.635742	31221.599609
1157.518555	30925.078125
1156.401367	31257.207031
1155.283203	31034.583984
1154.165039	30874.650391
1153.046875	30837.730469
1151.928711	31232.212891
1150.809570	30996.343750
1149.690430	30662.246094
1148.571289	31025.265625
1147.452148	30722.550781
1146.333008	31168.050781
1145.212891	31133.347656
1144.093750	30991.503906
1142.973633	30831.855469
1141.852539	30906.572266
1140.732422	30825.083984
1139.611328	30520.552734
1138.490234	30615.353516
1137.369141	31049.064453
1136.248047	30963.144531
1135.126953	30730.134766
1134.004883	30847.111328
1132.882812	30848.173828
1131.760742	30911.613281
1130.638672	30585.224609
1129.515625	30849.123047
1128.393555	30687.632812
1127.270508	30675.359375
1126.147461	30511.730469
1125.023438	30764.316406
1123.900391	30807.656250
1122.776367	30635.193359
1121.652344	30778.626953
1120.528320	30793.027344
1119.403320	30780.740234
1118.279297	30461.683594
1117.154297	30869.527344
1116.029297	30595.011719
1114.904297	30684.966797
1113.778320	30759.337891
1112.653320	30387.265625
1111.527344	30479.423828
1110.401367	30766.923828
1109.274414	30603.705078
1108.148438	30595.900391
1107.021484	30583.660156
1105.894531	30669.037109
1104.767578	30645.693359
1103.640625	30487.076172
1102.512695	30541.376953
1101.385742	30478.162109
1100.257812	30964.662109
1099.128906	30633.240234
1098.000977	30377.271484
1096.872070	30294.189453
1095.744141	30720.560547
1094.615234	30745.951172
1093.485352	30578.708984
1092.356445	30586.404297
1091.226562	30514.417969
1090.096680	30539.824219
1088.966797	30748.853516
1087.836914	30444.607422
1086.706055	30792.910156
1085.576172	30661.242188
1084.445312	30576.048828
1083.314453	30625.720703
1082.182617	30865.439453
1081.051758	30698.494141
1079.919922	30703.929688
1078.788086	30347.113281
1077.656250	30251.019531
1076.523438	30620.853516
1075.391602	30745.503906
1074.258789	30362.449219
1073.125977	30604.060547
1071.993164	30285.154297
1070.859375	30716.404297
1069.726562	30463.759766
1068.592773	30237.667969
1067.458984	30490.097656
1066.324219	30533.017578
1065.190430	30851.417969
1064.055664	30709.152344
1062.920898	30685.908203
1061.786133	30398.337891
1060.650391	30478.669922
1059.515625	30446.667969
1058.379883	30793.347656
1057.244141	30532.376953
1056.108398	30271.501953
1054.971680	30571.810547
1053.835938	30797.210938
1052.699219	30518.828125
1051.562500	30337.310547
1050.424805	30613.195312
1049.288086	30506.466797
1048.150391	30531.652344
1047.012695	30378.828125
1045.875000	30891.789062
1044.737305	30106.291016
1043.598633	30660.841797
1042.459961	30514.687500
1041.321289	30739.628906
1040.182617	30466.193359
1039.043945	30745.927734
1037.904297	30735.906250
1036.764648	30298.072266
1035.625000	30790.451172
1034.485352	30458.035156
1033.344727	30412.984375
1032.205078	30492.912109
1031.064453	30533.353516
1029.923828	30657.056641
1028.782227	30587.896484
1027.641602	30542.857422
1026.500000	30357.654297
1025.358398	30529.470703
1024.216797	30304.923828
1023.074219	30238.072266
1021.932617	30679.023438
1020.790039	30412.990234
1019.647461	30403.039062
1018.503906	30474.025391
1017.361328	30499.056641
1016.217773	30290.099609
1015.074219	30457.261719
1013.930664	30292.105469
1012.787109	30413.306641
1011.642578	30366.210938
1010.498047	30240.482422
1009.353516	30346.333984
1008.208984	30332.029297
1007.064453	30557.914062
1005.918945	30082.943359
1004.773438	30197.470703
1003.627930	30458.167969
1002.482422	30315.119141
1001.335938	30436.080078
1000.189453	30445.761719
999.043945	30590.640625
997.896484	30384.437500
996.750000	30315.642578
995.602539	30447.384766
994.456055	30295.794922
993.308594	30246.658203
992.160156	30140.904297
991.012695	30329.199219
989.864258	30406.375000
988.715820	30021.976562
987.567383	30131.828125
986.418945	30470.144531
985.269531	30144.693359
984.121094	30567.724609
982.971680	30568.634766
981.821289	30325.978516
980.671875	30218.214844
979.521484	30336.572266
978.372070	30737.439453
977.221680	30288.480469
976.070312	30169.935547
974.919922	30312.105469
973.768555	30436.847656
972.617188	30227.132812
971.465820	30301.906250
970.314453	30305.017578
969.162109	30631.500000
968.009766	30484.826172
966.857422	30442.337891
965.705078	30590.746094
964.552734	30405.119141
963.399414	30566.486328
962.246094	30363.585938
961.092773	30481.546875
959.939453	30345.914062
958.785156	30468.167969
957.631836	30501.556641
956.477539	30177.556641
955.322266	30399.382812
954.167969	30387.292969
953.012695	30431.490234
951.858398	30380.439453
950.703125	30424.619141
949.546875	30334.642578
948.391602	30794.128906
947.235352	30366.730469
946.079102	30518.990234
944.922852	30225.835938
943.766602	30462.361328
942.609375	30690.156250
941.452148	30373.359375
940.294922	30318.080078
939.137695	30113.783203
937.980469	30347.945312
936.822266	30277.582031
935.664062	30664.896484
934.505859	30417.513672
933.347656	30334.224609
932.188477	30263.910156
931.030273	30174.205078
929.871094	30464.121094
928.710938	30605.140625
927.551758	30334.318359
926.391602	30671.462891
925.232422	30124.865234
924.071289	30209.814453
922.911133	30316.273438
921.750977	30278.375000
920.589844	30089.740234
919.428711	30021.751953
918.267578	30104.480469
917.105469	30068.796875
915.944336	30246.171875
914.782227	30386.904297
913.620117	30230.716797
912.458008	30132.658203
911.294922	30155.056641
910.132812	30224.746094
908.969727	30096.642578
907.806641	30144.822266
906.642578	30051.160156
905.479492	30103.623047
904.315430	30138.882812
903.151367	30139.765625
901.987305	30215.798828
900.822266	30130.791016
899.657227	30348.458984
898.493164	30291.353516
897.327148	29927.441406
896.162109	29891.884766
894.997070	30152.328125
893.831055	30151.050781
892.665039	30235.537109
891.499023	30362.861328
890.332031	30057.199219
889.165039	30019.505859
887.999023	29908.980469
886.831055	30014.847656
885.664062	30086.404297
884.497070	30044.447266
883.329102	29818.384766
882.161133	30181.042969
880.993164	30143.367188
879.824219	29930.248047
878.656250	30166.460938
877.487305	29972.662109
876.318359	29975.679688
875.148438	30000.074219
873.979492	29941.087891
872.809570	30127.916016
871.639648	30113.798828
870.469727	30298.386719
869.298828	30042.857422
868.128906	30191.078125
866.958008	30371.275391
865.787109	30071.035156
864.616211	29715.404297
863.444336	30245.589844
862.272461	29983.943359
861.100586	30057.333984
859.928711	29870.472656
858.756836	30018.496094
857.583984	30420.195312
856.411133	30391.119141
855.238281	30121.201172
854.065430	30352.173828
852.891602	30459.482422
851.718750	30654.089844
850.544922	29973.257812
849.370117	30438.320312
848.196289	30505.076172
847.021484	30680.367188
845.847656	30317.142578
844.671875	30064.697266
843.497070	30414.421875
842.322266	30330.089844
841.146484	30379.771484
839.970703	30461.324219
838.794922	30143.177734
837.618164	30314.015625
836.442383	30482.662109
835.265625	30768.105469
834.088867	30475.623047
832.911133	30767.330078
831.734375	30347.541016
830.556641	30189.054688
829.378906	30597.400391
828.201172	30262.767578
827.023438	30785.531250
825.844727	30196.394531
824.666016	30241.708984
823.487305	30463.031250
822.308594	30457.386719
821.128906	30684.943359
819.949219	30513.927734
818.769531	30531.583984
817.589844	30549.232422
816.410156	30797.781250
815.229492	30518.845703
814.048828	30614.835938
812.868164	30679.031250
811.687500	30404.501953
810.505859	30458.125000
809.324219	30763.541016
808.142578	30613.970703
806.960938	30288.884766
805.779297	30693.558594
804.596680	30702.667969
803.414062	30578.582031
802.231445	30577.138672
801.047852	30326.320312
799.865234	30633.408203
798.681641	30612.937500
797.498047	30611.482422
796.314453	30580.462891
795.129883	30614.904297
793.946289	30503.673828
792.761719	30875.808594
791.577148	30403.724609
790.391602	30638.599609
789.207031	30535.880859
788.021484	30808.603516
786.835938	30942.052734
785.649414	30520.986328
784.463867	30694.486328
783.277344	30591.843750
782.090820	30430.242188
780.904297	30607.871094
779.717773	30501.085938
778.530273	30575.445312
777.342773	30586.611328
776.155273	30496.724609
774.967773	30577.353516
773.779297	30468.562500
772.590820	30561.787109
771.402344	30392.031250
770.213867	30844.873047
769.025391	30509.007812
767.835938	30682.041016
766.646484	30295.880859
765.457031	30641.214844
764.267578	30477.931641
763.077148	30514.281250
761.886719	30451.898438
760.696289	30576.439453
759.505859	30320.898438
758.314453	30462.208984
757.124023	30601.367188
755.932617	30706.896484
754.741211	30766.226562
753.548828	30819.240234
752.357422	30943.541016
751.165039	30730.193359
749.972656	30644.808594
748.779297	30364.515625
747.586914	30656.462891
746.393555	30885.439453
745.200195	30192.546875
744.006836	30593.275391
742.813477	30564.546875
741.619141	30598.640625
740.424805	30461.062500
739.230469	30679.345703
738.036133	30428.800781
736.840820	30667.927734
735.645508	30735.433594
734.450195	30612.591797
733.254883	30596.437500
732.058594	30597.013672
730.863281	30718.824219
729.666992	30577.259766
728.470703	30728.279297
727.273438	30549.162109
726.077148	30390.994141
724.879883	30919.949219
723.682617	30258.574219
722.484375	30490.919922
721.287109	30541.593750
720.088867	30890.658203
718.890625	30811.878906
717.692383	30852.031250
716.493164	31031.902344
715.294922	30790.488281
714.095703	30736.798828
712.896484	30758.169922
711.696289	30416.902344
710.497070	30746.705078
709.296875	30768.056641
708.096680	30901.875000
706.895508	30681.617188
705.695312	30959.064453
704.494141	30878.351562
703.292969	30689.435547
702.091797	30490.183594
700.890625	30965.109375
699.688477	30886.527344
698.486328	30936.921875
697.284180	30895.802734
696.082031	30879.644531
694.878906	30674.335938
693.675781	30978.271484
692.472656	30675.359375
691.269531	30910.621094
690.065430	31071.021484
688.862305	30980.078125
687.658203	31061.501953
686.453125	30935.302734
685.249023	30709.523438
684.043945	30888.478516
682.838867	30996.824219
681.633789	30874.875000
680.428711	30761.263672
679.222656	31108.031250
678.017578	30803.681641
676.811523	30775.128906
675.604492	31069.884766
674.398438	30974.986328
673.191406	30817.970703
671.984375	30752.148438
670.777344	30564.166016
669.570312	31100.927734
668.362305	31084.767578
667.154297	30979.613281
665.946289	30864.150391
664.738281	31117.003906
663.529297	30999.486328
662.320312	31239.806641
661.111328	30686.005859
659.902344	31145.435547
658.692383	30848.166016
657.483398	31024.263672
656.273438	30908.953125
655.063477	31097.367188
653.852539	30944.904297
652.641602	30984.550781
651.431641	30993.210938
650.219727	31036.958984
649.008789	30917.640625
647.796875	30827.253906
646.585938	30978.289062
645.374023	30892.046875
644.161133	31045.072266
642.949219	31167.109375
641.736328	30889.146484
640.523438	30951.388672
639.310547	30692.113281
638.096680	30853.267578
636.883789	30835.134766
635.669922	30950.886719
634.456055	30780.351562
633.241211	30679.880859
632.027344	30834.703125
630.812500	30808.351562
629.597656	30864.316406
628.382812	30780.359375
627.166992	30788.996094
625.951172	30783.232422
624.735352	30798.031250
623.519531	30531.173828
622.303711	30531.623047
621.086914	30807.449219
619.870117	30832.498047
618.653320	30890.408203
617.435547	30810.681641
616.218750	30657.056641
615.000977	30866.892578
613.783203	30614.779297
612.564453	30968.208984
611.346680	30800.298828
610.127930	30794.529297
608.909180	30846.191406
607.690430	30830.158203
606.470703	30926.902344
605.250977	30896.505859
604.031250	30804.626953
602.811523	30936.156250
601.591797	30655.802734
600.371094	31194.962891
599.150391	30853.220703
597.929688	31187.363281
596.708984	30819.128906
595.487305	30979.156250
594.265625	30709.335938
593.043945	31069.849609
591.822266	30802.154297
590.599609	30962.058594
589.376953	30986.927734
588.154297	30694.859375
586.931641	30693.189453
585.708984	30955.183594
584.485352	30642.845703
583.261719	31033.466797
582.038086	31076.669922
580.813477	31232.187500
579.589844	31169.148438
578.365234	48319.039062
577.140625	40385.886719
575.915039	31096.498047
574.690430	31076.376953
573.464844	31095.023438
572.239258	30923.970703
571.012695	30752.978516
569.787109	31197.810547
568.560547	31167.488281
567.333984	30959.855469
566.107422	30994.796875
564.879883	31133.632812
563.652344	31321.300781
562.425781	31278.757812
561.197266	31158.851562
559.969727	31216.109375
558.741211	31212.281250
557.512695	31241.013672
556.284180	31316.531250
555.055664	31036.009766
553.826172	31323.068359
552.596680	31272.443359
551.367188	31018.513672
550.137695	30904.943359
548.907227	31232.455078
547.676758	30970.544922
546.446289	30962.689453
545.215820	30753.738281
543.985352	30780.451172
542.753906	30809.181641
541.522461	30921.136719
540.291016	30823.982422
539.058594	30915.595703
537.826172	31037.607422
536.593750	31202.173828
535.361328	30650.707031
534.128906	30801.085938
532.895508	30746.632812
531.662109	31004.369141
530.428711	30822.210938
529.195312	30559.068359
527.960938	30782.248047
526.726562	30618.460938
525.492188	30754.460938
524.257812	30963.302734
523.022461	30684.175781
521.788086	30413.250000
520.552734	30842.611328
519.316406	30658.755859
518.081055	30618.595703
516.844727	30570.357422
515.608398	30691.994141
514.372070	30823.693359
513.134766	30668.306641
511.898438	30577.648438
510.661133	30315.271484
509.423828	30539.867188
508.185547	30576.531250
506.947266	30366.804688
505.709961	30577.125000
504.470703	30694.505859
503.232422	30638.263672
501.993164	30580.023438
500.754883	30671.103516
499.515625	30735.923828
498.275391	30742.232422
497.036133	30883.636719
495.795898	30938.296875
494.555664	30936.494141
493.314453	30775.484375
492.074219	30683.041016
490.833008	30645.023438
489.591797	30818.503906
488.350586	30818.734375
487.108398	30736.412109
485.867188	30625.939453
484.625000	30678.529297
483.382812	30556.031250
482.139648	30719.263672
480.896484	30878.410156
479.653320	30912.806641
478.410156	30838.609375
477.166992	30744.335938
475.922852	31086.259766
474.678711	30893.500000
473.434570	30827.392578
472.190430	30905.945312
470.945312	30954.339844
469.700195	31093.078125
468.455078	30972.769531
467.209961	31047.216797
465.963867	30800.521484
464.718750	30945.197266
463.472656	31097.841797
462.225586	30831.214844
460.979492	31124.201172
459.732422	30609.041016
458.485352	30823.773438
457.238281	30501.273438
455.990234	30721.953125
454.742188	30870.421875
453.494141	30608.185547
452.246094	30734.585938
450.998047	30878.957031
449.749023	30524.771484
448.500000	30665.123047
447.250977	30837.439453
446.000977	30537.480469
444.751953	30793.775391
443.501953	30381.927734
442.251953	30566.162109
441.000977	30678.345703
439.750977	30700.531250
438.500000	30490.867188
437.249023	30575.023438
435.997070	30725.074219
434.746094	30375.697266
433.494141	30499.763672
432.242188	30438.085938
430.989258	30747.751953
429.737305	30664.091797
428.484375	30574.476562
427.231445	30586.648438
425.978516	30449.203125
424.724609	30429.480469
423.470703	30326.011719
422.216797	30491.732422
420.962891	30394.267578
419.708008	30368.585938
418.454102	30540.177734
417.199219	30331.191406
415.943359	30614.263672
414.688477	30413.306641
413.432617	30339.851562
412.176758	30332.117188
410.920898	30250.742188
409.664062	30149.496094
408.408203	30358.658203
407.151367	30040.607422
405.893555	30299.429688
404.636719	30498.498047
403.378906	30333.675781
402.121094	30721.490234
400.863281	30590.468750
399.605469	30340.283203
398.346680	30566.958984
397.087891	30297.005859
395.829102	30894.945312
394.570312	30505.906250
393.310547	31047.994141
392.050781	30728.533203
390.791016	30363.552734
389.531250	30439.136719
388.270508	30381.794922
387.009766	30328.437500
385.749023	30401.998047
384.488281	30509.230469
383.226562	30568.853516
381.964844	30438.210938
380.703125	30376.962891
379.441406	30646.546875
378.178711	30622.908203
376.916016	30593.337891
375.653320	30716.220703
374.390625	30563.916016
373.126953	30158.355469
371.864258	30641.359375
370.599609	30576.197266
369.335938	30313.267578
368.072266	30265.986328
366.807617	30562.746094
365.542969	30715.085938
364.277344	30788.312500
363.012695	30960.308594
361.747070	31252.753906
360.481445	31041.392578
359.215820	31454.175781
357.949219	31568.650391
356.683594	31870.621094
355.416992	32273.140625
354.149414	32882.710938
352.882812	32981.035156
351.615234	32972.796875
350.347656	33564.132812
349.080078	34234.117188
347.811523	35398.699219
346.543945	36249.421875
345.275391	36906.683594
344.005859	36881.937500
342.737305	36006.148438
341.467773	35183.871094
340.198242	34133.464844
338.928711	33128.746094
337.659180	32447.242188
336.388672	31557.373047
335.118164	31181.431641
333.847656	31057.458984
332.576172	30854.851562
331.305664	30823.417969
330.034180	30524.580078
328.761719	30345.775391
327.490234	30471.693359
326.217773	30253.660156
324.945312	30253.800781
323.672852	30379.662109
322.400391	30468.156250
321.126953	30118.716797
319.853516	30342.691406
318.580078	30015.000000
317.305664	30374.322266
316.032227	30250.810547
314.757812	30084.185547
313.483398	29923.507812
312.208008	30151.177734
310.933594	29890.550781
309.658203	30194.587891
308.382812	30229.998047
307.106445	29998.892578
305.830078	30089.181641
304.554688	30259.744141
303.277344	29936.714844
302.000977	30079.826172
300.723633	30289.445312
299.446289	30348.267578
298.168945	30046.986328
296.891602	30164.527344
295.613281	30741.728516
294.334961	30501.171875
293.056641	30923.605469
291.778320	31093.671875
290.499023	31107.292969
289.219727	31140.451172
287.940430	31152.103516
286.661133	31546.652344
285.380859	31585.562500
284.100586	31495.570312
282.820312	31491.517578
281.539062	31329.345703
280.258789	31061.839844
278.977539	31011.035156
277.696289	30581.757812
276.414062	30782.691406
275.132812	30741.716797
273.850586	30893.792969
272.568359	30942.486328
271.285156	31010.650391
270.002930	31628.337891
268.719727	31840.523438
267.435547	32327.294922
266.152344	32786.613281
264.868164	33950.667969
263.583984	35404.363281
262.299805	37276.003906
261.015625	39888.417969
259.730469	44124.558594
258.445312	48592.535156
257.160156	53333.050781
255.875000	56792.160156
254.588867	57477.378906
253.302734	55015.109375
252.016602	51018.371094
250.730469	46488.777344
249.443359	42368.902344
248.156250	39353.910156
246.869141	36973.179688
245.581055	35105.964844
244.293945	33792.746094
243.005859	32947.792969
241.717773	32318.570312
240.428711	31555.710938
239.139648	31122.914062
237.850586	30463.363281
236.561523	30104.625000
235.272461	29852.652344
233.982422	29602.712891
232.692383	29852.869141
231.402344	29196.121094
230.112305	29140.171875
228.821289	28876.994141
227.530273	29068.998047
226.239258	31725.636719
224.947266	30170.951172
223.655273	28663.308594
222.363281	28170.199219
221.071289	28238.328125
219.779297	28070.447266
218.486328	28074.748047
217.193359	27802.546875
215.900391	27540.115234
214.606445	27965.863281
213.313477	27807.849609
212.019531	27769.683594
210.724609	27520.974609
209.430664	27544.677734
208.135742	27545.199219
206.840820	27634.525391
205.545898	27638.886719
204.250000	27365.345703
202.954102	27358.177734
201.658203	27343.294922
200.362305	27415.208984
199.066406	27176.625000
197.769531	27051.884766
196.472656	26929.119141
195.174805	26922.033203
193.877930	26670.234375
192.580078	26957.958984
191.282227	27074.142578
189.984375	27078.585938
188.685547	26946.318359
187.386719	26817.953125
186.087891	26853.232422
184.789062	26792.281250
183.489258	26760.212891
182.189453	26757.007812
180.889648	26601.867188
179.589844	26742.904297
178.289062	26712.787109
176.988281	26575.041016
175.687500	26544.962891
174.386719	26597.515625
173.084961	26567.441406
171.783203	26539.300781
170.481445	26854.894531
169.179688	26542.560547
167.876953	26635.367188
166.574219	26868.232422
165.271484	26479.320312
163.968750	26245.949219
162.665039	26367.505859
161.361328	26057.535156
160.057617	26292.199219
158.752930	26024.531250
157.449219	26174.781250
156.144531	26290.480469
154.838867	25925.253906
153.534180	25933.687500
152.228516	25878.916016
150.922852	25954.367188
149.617188	25675.628906
148.310547	25586.482422
147.004883	25893.494141
145.698242	25917.220703
144.390625	25680.781250
143.083984	25639.511719
141.776367	25602.080078
140.468750	25738.636719
139.161133	25662.968750
137.852539	25581.597656
136.543945	25706.611328
135.235352	25352.080078
133.926758	25303.279297
132.617188	24966.146484
131.308594	24590.957031
129.998047	24196.822266
128.688477	24314.316406
127.377930	23966.177734
126.068359	23465.552734
124.756836	23356.134766
123.446289	22516.363281
122.134766	22454.833984
120.823242	21689.902344
119.511719	21277.861328
