#Wave		#Intensity
1698.992188	46494.101562
1697.971680	46775.839844
1696.951172	46451.582031
1695.930664	46509.484375
1694.909180	47189.304688
1693.887695	46759.871094
1692.867188	46582.699219
1691.844727	47164.250000
1690.823242	46495.250000
1689.801758	47061.925781
1688.779297	46752.738281
1687.756836	46971.894531
1686.734375	46516.121094
1685.711914	46776.800781
1684.689453	46726.964844
1683.666016	46928.855469
1682.643555	46754.394531
1681.620117	46755.882812
1680.596680	46390.992188
1679.572266	46590.355469
1678.548828	46777.433594
1677.524414	46847.265625
1676.500000	46819.441406
1675.475586	46945.363281
1674.451172	47083.441406
1673.426758	46635.988281
1672.401367	46705.773438
1671.375977	46614.585938
1670.350586	46662.402344
1669.325195	46624.878906
1668.299805	46777.480469
1667.274414	46942.207031
1666.248047	47041.093750
1665.221680	46923.132812
1664.195312	46807.644531
1663.168945	47011.207031
1662.141602	46688.789062
1661.115234	46585.574219
1660.087891	46557.839844
1659.060547	46839.167969
1658.033203	46816.261719
1657.004883	46620.648438
1655.977539	46841.003906
1654.949219	46611.410156
1653.920898	46578.828125
1652.892578	46621.613281
1651.863281	46924.437500
1650.834961	46617.222656
1649.805664	46710.996094
1648.776367	46360.199219
1647.747070	46769.710938
1646.717773	46496.730469
1645.688477	46658.429688
1644.658203	46693.843750
1643.627930	46583.621094
1642.597656	46398.214844
1641.567383	46916.449219
1640.537109	46520.011719
1639.505859	46339.558594
1638.474609	46852.671875
1637.444336	46589.792969
1636.412109	46312.460938
1635.380859	46643.535156
1634.349609	46627.980469
1633.317383	46152.125000
1632.285156	46371.621094
1631.252930	46511.117188
1630.220703	46238.925781
1629.187500	46332.394531
1628.155273	46469.394531
1627.122070	46253.011719
1626.088867	46658.562500
1625.055664	46159.167969
1624.021484	46092.914062
1622.988281	46355.585938
1621.954102	46589.144531
1620.919922	46036.921875
1619.885742	46473.488281
1618.851562	46080.980469
1617.816406	46116.285156
1616.782227	46216.800781
1615.747070	46211.000000
1614.711914	46140.000000
1613.675781	45974.855469
1612.640625	46343.281250
1611.604492	45770.246094
1610.568359	46148.226562
1609.532227	46103.828125
1608.496094	46134.230469
1607.459961	46343.101562
1606.422852	46117.824219
1605.385742	46505.042969
1604.349609	46205.082031
1603.311523	46182.402344
1602.274414	46130.812500
1601.237305	46108.152344
1600.199219	46237.261719
1599.161133	45749.742188
1598.123047	46399.011719
1597.084961	46193.328125
1596.045898	46117.707031
1595.006836	46217.808594
1593.968750	46370.812500
1592.929688	46278.351562
1591.889648	46200.359375
1590.850586	46023.781250
1589.810547	46470.070312
1588.771484	46613.265625
1587.731445	45809.308594
1586.690430	45885.273438
1585.650391	46417.769531
1584.610352	46270.160156
1583.569336	46105.789062
1582.528320	45917.453125
1581.487305	46022.136719
1580.445312	46194.003906
1579.404297	46502.628906
1578.362305	46225.554688
1577.320312	46106.941406
1576.278320	46756.085938
1575.236328	46654.210938
1574.194336	46336.527344
1573.151367	46177.210938
1572.108398	46324.816406
1571.065430	46561.054688
1570.022461	46301.121094
1568.979492	46501.335938
1567.935547	46241.503906
1566.891602	46611.714844
1565.847656	46450.140625
1564.803711	46640.597656
1563.759766	46661.011719
1562.714844	46518.656250
1561.669922	46204.046875
1560.625977	46253.238281
1559.580078	46247.382812
1558.535156	46535.730469
1557.490234	46613.523438
1556.444336	46633.906250
1555.398438	46362.628906
1554.352539	46449.968750
1553.306641	46821.652344
1552.259766	46521.808594
1551.213867	46100.242188
1550.166992	46242.492188
1549.120117	46234.242188
1548.073242	46385.964844
1547.025391	46628.343750
1545.978516	46426.699219
1544.930664	46544.894531
1543.882812	46553.292969
1542.834961	46592.695312
1541.786133	46460.359375
1540.738281	46945.683594
1539.689453	46493.851562
1538.640625	46483.171875
1537.591797	46246.078125
1536.542969	46364.117188
1535.493164	46608.382812
1534.443359	46831.125000
1533.393555	46529.824219
1532.343750	46473.898438
1531.293945	46544.167969
1530.244141	47021.449219
1529.193359	46734.601562
1528.142578	46811.921875
1527.091797	46575.171875
1526.041016	46381.320312
1524.989258	46834.414062
1523.938477	46595.402344
1522.886719	46491.988281
1521.834961	46602.531250
1520.783203	46803.343750
1519.730469	46792.605469
1518.678711	46808.003906
1517.625977	46987.289062
1516.573242	46701.039062
1515.520508	46319.914062
1514.466797	46463.574219
1513.414062	46441.027344
1512.360352	46349.671875
1511.306641	46327.152344
1510.252930	46190.769531
1509.199219	46524.062500
1508.144531	46698.347656
1507.090820	46704.226562
1506.036133	46316.585938
1504.981445	46500.289062
1503.925781	46143.625000
1502.871094	46519.207031
1501.815430	46304.792969
1500.759766	46369.937500
1499.704102	46446.898438
1498.648438	46187.625000
1497.592773	46271.683594
1496.536133	46440.917969
1495.479492	46243.304688
1494.422852	46478.722656
1493.366211	46240.957031
1492.308594	46298.906250
1491.251953	46368.660156
1490.194336	46187.773438
1489.136719	46271.699219
1488.079102	46509.214844
1487.020508	46288.226562
1485.962891	46372.082031
1484.904297	46151.195312
1483.845703	46180.722656
1482.787109	46193.710938
1481.728516	45833.675781
1480.668945	46042.628906
1479.609375	45916.390625
1478.549805	46127.613281
1477.490234	46206.644531
1476.430664	46193.652344
1475.370117	45925.968750
1474.310547	46014.417969
1473.250000	45956.671875
1472.189453	46028.585938
1471.127930	45984.992188
1470.067383	46716.609375
1469.005859	46168.765625
1467.944336	46228.800781
1466.882812	45843.730469
1465.821289	45953.246094
1464.759766	46161.589844
1463.697266	46085.066406
1462.634766	46229.769531
1461.572266	45717.980469
1460.509766	46123.816406
1459.446289	46273.132812
1458.383789	46173.132812
1457.320312	45847.453125
1456.256836	46118.972656
1455.193359	45661.796875
1454.128906	45954.398438
1453.065430	45986.105469
1452.000977	45843.964844
1450.936523	45852.187500
1449.872070	45907.367188
1448.806641	45643.230469
1447.742188	45916.730469
1446.676758	45436.761719
1445.611328	45714.890625
1444.545898	45774.730469
1443.479492	45874.421875
1442.414062	45854.468750
1441.347656	46118.246094
1440.281250	45870.843750
1439.214844	46085.296875
1438.147461	45659.871094
1437.081055	45904.742188
1436.013672	45805.140625
1434.946289	45731.335938
1433.878906	45938.585938
1432.811523	45548.683594
1431.743164	45734.816406
1430.675781	45986.421875
1429.607422	45329.929688
1428.539062	45766.355469
1427.469727	45868.089844
1426.401367	45934.707031
1425.332031	45786.148438
1424.262695	45897.171875
1423.193359	45945.039062
1422.124023	45429.601562
1421.053711	45762.625000
1419.984375	46123.566406
1418.914062	46049.875000
1417.843750	45413.332031
1416.772461	45713.417969
1415.702148	45934.015625
1414.630859	45654.980469
1413.559570	45789.152344
1412.488281	45717.921875
1411.416992	45891.691406
1410.345703	45507.886719
1409.273438	45590.667969
1408.201172	45922.925781
1407.128906	45585.945312
1406.056641	45601.062500
1404.983398	45546.257812
1403.911133	45913.226562
1402.837891	45590.464844
1401.764648	45444.839844
1400.691406	45411.054688
1399.617188	45803.390625
1398.542969	45848.703125
1397.469727	45409.847656
1396.395508	45897.382812
1395.320312	45668.085938
1394.246094	45457.476562
1393.170898	45053.890625
1392.096680	45608.570312
1391.020508	45837.531250
1389.945312	45710.730469
1388.870117	45421.269531
1387.793945	45592.039062
1386.717773	45611.718750
1385.641602	45666.238281
1384.565430	45258.531250
1383.489258	45436.167969
1382.412109	45397.808594
1381.334961	45691.421875
1380.257812	45588.039062
1379.180664	45521.824219
1378.103516	45420.828125
1377.025391	46092.324219
1375.947266	45209.664062
1374.869141	45549.355469
1373.791016	45657.078125
1372.712891	45250.160156
1371.633789	45717.125000
1370.555664	45708.894531
1369.476562	45223.410156
1368.396484	45029.960938
1367.317383	45612.417969
1366.237305	45117.945312
1365.158203	45447.828125
1364.078125	45254.468750
1362.997070	45625.859375
1361.916992	45228.914062
1360.835938	45644.125000
1359.755859	45161.734375
1358.674805	45276.167969
1357.593750	45200.960938
1356.511719	45403.187500
1355.430664	45529.066406
1354.348633	45902.167969
1353.266602	45378.652344
1352.184570	45345.062500
1351.101562	45138.261719
1350.019531	45439.566406
1348.936523	45283.613281
1347.853516	45402.414062
1346.770508	45149.582031
1345.686523	45141.441406
1344.603516	45144.843750
1343.519531	45342.007812
1342.435547	45331.527344
1341.351562	45367.167969
1340.267578	45010.851562
1339.182617	44942.800781
1338.097656	45102.941406
1337.012695	44887.421875
1335.927734	45001.433594
1334.842773	45087.757812
1333.756836	45084.230469
1332.670898	45271.824219
1331.584961	45420.207031
1330.499023	44993.085938
1329.413086	44911.324219
1328.326172	44995.261719
1327.239258	45148.183594
1326.152344	45011.226562
1325.065430	45090.496094
1323.978516	45151.335938
1322.890625	45540.894531
1321.803711	45268.351562
1320.715820	45250.992188
1319.626953	44992.378906
1318.539062	44981.960938
1317.450195	45233.382812
1316.362305	44837.125000
1315.273438	44773.925781
1314.183594	44825.527344
1313.094727	45340.726562
1312.004883	45355.488281
1310.916016	45062.800781
1309.826172	44880.328125
1308.735352	45156.617188
1307.645508	45056.738281
1306.554688	44681.773438
1305.464844	45400.343750
1304.374023	44913.148438
1303.282227	44992.109375
1302.191406	44869.429688
1301.099609	44714.726562
1300.008789	44777.644531
1298.916992	44984.789062
1297.824219	44770.621094
1296.732422	44714.460938
1295.639648	44905.480469
1294.546875	44881.347656
1293.454102	45015.074219
1292.361328	45045.820312
1291.268555	44987.367188
1290.174805	45116.421875
1289.081055	44340.156250
1287.987305	44688.699219
1286.893555	44589.207031
1285.799805	44613.132812
1284.705078	44527.398438
1283.610352	44489.652344
1282.515625	44550.113281
1281.420898	44564.886719
1280.325195	44408.449219
1279.230469	44790.695312
1278.134766	44358.156250
1277.039062	44409.453125
1275.942383	44478.972656
1274.846680	44571.277344
1273.750000	44186.968750
1272.653320	44739.816406
1271.556641	44446.792969
1270.459961	44317.960938
1269.363281	44669.960938
1268.265625	44215.347656
1267.167969	44102.566406
1266.070312	44347.375000
1264.972656	44368.945312
1263.874023	44313.109375
1262.775391	44261.839844
1261.676758	44328.925781
1260.578125	44223.058594
1259.479492	44519.890625
1258.379883	44418.574219
1257.281250	44444.640625
1256.181641	43979.585938
1255.082031	44178.488281
1253.981445	44047.750000
1252.881836	44576.066406
1251.781250	44286.261719
1250.680664	44282.781250
1249.580078	43936.351562
1248.479492	43994.246094
1247.377930	44224.664062
1246.276367	43876.156250
1245.174805	44142.820312
1244.073242	43985.058594
1242.971680	44020.191406
1241.869141	44567.953125
1240.766602	43972.488281
1239.664062	44102.835938
1238.561523	43942.945312
1237.458984	44456.316406
1236.355469	43822.765625
1235.251953	43857.871094
1234.148438	43747.976562
1233.044922	44054.882812
1231.941406	43741.171875
1230.836914	44204.195312
1229.732422	44202.968750
1228.627930	44382.816406
1227.523438	43820.335938
1226.417969	44258.113281
1225.313477	43775.031250
1224.208008	44393.593750
1223.102539	44016.941406
1221.996094	44343.574219
1220.890625	43887.945312
1219.784180	44282.281250
1218.677734	44249.390625
1217.571289	44304.621094
1216.464844	43908.054688
1215.357422	44412.757812
1214.250977	44120.179688
1213.143555	44182.160156
1212.036133	44368.261719
1210.927734	44563.324219
1209.820312	44408.566406
1208.711914	44226.789062
1207.603516	44076.660156
1206.495117	44093.460938
1205.386719	44335.734375
1204.277344	44480.984375
1203.167969	44448.109375
1202.058594	44174.121094
1200.949219	44296.777344
1199.839844	44196.371094
1198.729492	44456.371094
1197.619141	44243.371094
1196.508789	44381.679688
1195.398438	44474.914062
1194.288086	44129.230469
1193.176758	44260.730469
1192.065430	44194.191406
1190.954102	44296.382812
1189.842773	44322.070312
1188.730469	44217.324219
1187.619141	43926.007812
1186.506836	44488.972656
1185.394531	44339.300781
1184.281250	43886.332031
1183.168945	44568.058594
1182.055664	44380.261719
1180.942383	44621.472656
1179.829102	44395.558594
1178.715820	44286.464844
1177.601562	44435.527344
1176.488281	44288.308594
1175.374023	44217.429688
1174.258789	44727.597656
1173.144531	44367.324219
1172.029297	44363.738281
1170.915039	44328.761719
1169.799805	44365.531250
1168.684570	44624.175781
1167.568359	44510.734375
1166.453125	43837.214844
1165.336914	44156.285156
1164.220703	43774.226562
1163.103516	44115.585938
1161.987305	44044.867188
1160.870117	44253.980469
1159.752930	43941.554688
1158.635742	44005.160156
1157.518555	44180.601562
1156.401367	44172.558594
1155.283203	44247.261719
1154.165039	44051.382812
1153.046875	44389.878906
1151.928711	44024.164062
1150.809570	44293.261719
1149.690430	44379.039062
1148.571289	44064.902344
1147.452148	44246.726562
1146.333008	44104.679688
1145.212891	43911.328125
1144.093750	44035.039062
1142.973633	44138.609375
1141.852539	44059.160156
1140.732422	44106.910156
1139.611328	43773.191406
1138.490234	43644.777344
1137.369141	43978.000000
1136.248047	44094.835938
1135.126953	43852.746094
1134.004883	43933.898438
1132.882812	43551.542969
1131.760742	43922.339844
1130.638672	43854.191406
1129.515625	43826.152344
1128.393555	43858.242188
1127.270508	43745.613281
1126.147461	43675.312500
1125.023438	43863.187500
1123.900391	43777.312500
1122.776367	43953.972656
1121.652344	43590.082031
1120.528320	43477.609375
1119.403320	43700.914062
1118.279297	43566.230469
1117.154297	43651.632812
1116.029297	43610.335938
1114.904297	43609.046875
1113.778320	43523.339844
1112.653320	43655.320312
1111.527344	43873.851562
1110.401367	43894.707031
1109.274414	43666.941406
1108.148438	43634.558594
1107.021484	43675.410156
1105.894531	43882.636719
1104.767578	43679.429688
1103.640625	43729.117188
1102.512695	43459.488281
1101.385742	43713.148438
1100.257812	43647.539062
1099.128906	43641.785156
1098.000977	43498.656250
1096.872070	43313.492188
1095.744141	43465.050781
1094.615234	43913.296875
1093.485352	43652.871094
1092.356445	43742.300781
1091.226562	43656.843750
1090.096680	43434.218750
1088.966797	43740.457031
1087.836914	43851.914062
1086.706055	43326.375000
1085.576172	43532.949219
1084.445312	43799.140625
1083.314453	43470.621094
1082.182617	43595.277344
1081.051758	43814.902344
1079.919922	43787.011719
1078.788086	43600.089844
1077.656250	44080.183594
1076.523438	43849.113281
1075.391602	43357.628906
1074.258789	43484.339844
1073.125977	43524.941406
1071.993164	43415.484375
1070.859375	43696.535156
1069.726562	43306.972656
1068.592773	43773.171875
1067.458984	44087.062500
1066.324219	43646.937500
1065.190430	43850.539062
1064.055664	43987.953125
1062.920898	43552.488281
1061.786133	44106.226562
1060.650391	43811.847656
1059.515625	43775.207031
1058.379883	43447.968750
1057.244141	43715.164062
1056.108398	43757.781250
1054.971680	43842.187500
1053.835938	44032.156250
1052.699219	43997.703125
1051.562500	43809.320312
1050.424805	44172.886719
1049.288086	44021.906250
1048.150391	43756.687500
1047.012695	43689.343750
1045.875000	44340.484375
1044.737305	43741.441406
1043.598633	43524.781250
1042.459961	43635.386719
1041.321289	43699.847656
1040.182617	43705.015625
1039.043945	43628.972656
1037.904297	43658.285156
1036.764648	43619.570312
1035.625000	43539.191406
1034.485352	43548.761719
1033.344727	43580.250000
1032.205078	43611.726562
1031.064453	43191.652344
1029.923828	43801.746094
1028.782227	43425.609375
1027.641602	43463.656250
1026.500000	43530.160156
1025.358398	43502.468750
1024.216797	43818.542969
1023.074219	43552.195312
1021.932617	43504.812500
1020.790039	43588.746094
1019.647461	43585.128906
1018.503906	43592.449219
1017.361328	43488.222656
1016.217773	43657.367188
1015.074219	43024.082031
1013.930664	44124.437500
1012.787109	43613.679688
1011.642578	43769.562500
1010.498047	43049.320312
1009.353516	43594.050781
1008.208984	43457.199219
1007.064453	43235.246094
1005.918945	43179.285156
1004.773438	43472.570312
1003.627930	43861.769531
1002.482422	43729.351562
1001.335938	43483.542969
1000.189453	43929.226562
999.043945	43626.769531
997.896484	43477.042969
996.750000	43944.277344
995.602539	43308.515625
994.456055	43392.085938
993.308594	43808.960938
992.160156	43323.875000
991.012695	43649.132812
989.864258	43475.628906
988.715820	43633.101562
987.567383	43261.582031
986.418945	43523.492188
985.269531	43839.703125
984.121094	43866.460938
982.971680	43312.453125
981.821289	43604.601562
980.671875	43779.230469
979.521484	43475.535156
978.372070	43567.527344
977.221680	43698.597656
976.070312	43594.968750
974.919922	43647.781250
973.768555	43681.023438
972.617188	43271.269531
971.465820	43497.792969
970.314453	43607.011719
969.162109	43464.437500
968.009766	43536.730469
966.857422	43114.351562
965.705078	43349.363281
964.552734	43395.609375
963.399414	43348.597656
962.246094	43481.539062
961.092773	43850.687500
959.939453	43797.109375
958.785156	43925.554688
957.631836	43700.843750
956.477539	43372.250000
955.322266	43526.683594
954.167969	43605.277344
953.012695	43536.644531
951.858398	43905.222656
950.703125	43507.636719
949.546875	43246.500000
948.391602	43571.660156
947.235352	43617.707031
946.079102	43825.910156
944.922852	43562.734375
943.766602	43425.023438
942.609375	43944.343750
941.452148	43741.785156
940.294922	43614.914062
939.137695	43917.914062
937.980469	43674.437500
936.822266	43521.730469
935.664062	43682.097656
934.505859	43436.632812
933.347656	43678.953125
932.188477	43610.496094
931.030273	43526.960938
929.871094	43689.324219
928.710938	43349.195312
927.551758	43640.886719
926.391602	43337.535156
925.232422	43351.097656
924.071289	43364.656250
922.911133	43746.605469
921.750977	43656.691406
920.589844	43465.589844
919.428711	43423.128906
918.267578	43372.066406
917.105469	43215.554688
915.944336	43177.460938
914.782227	43388.960938
913.620117	43471.312500
912.458008	43248.214844
911.294922	43450.980469
910.132812	43322.566406
908.969727	43127.558594
907.806641	43138.945312
906.642578	43165.371094
905.479492	43451.742188
904.315430	43162.332031
903.151367	43285.375000
901.987305	43056.222656
900.822266	43518.437500
899.657227	43349.421875
898.493164	43180.468750
897.327148	42833.488281
896.162109	43117.335938
894.997070	43077.207031
893.831055	43030.652344
892.665039	43344.320312
891.499023	42808.976562
890.332031	43403.332031
889.165039	42861.742188
887.999023	43170.914062
886.831055	43419.992188
885.664062	43071.445312
884.497070	43431.792969
883.329102	43440.898438
882.161133	42994.074219
880.993164	43347.808594
879.824219	43239.238281
878.656250	42970.253906
877.487305	43458.542969
876.318359	43279.433594
875.148438	42933.609375
873.979492	43056.078125
872.809570	43067.359375
871.639648	42687.570312
870.469727	42929.660156
869.298828	42943.085938
868.128906	43283.277344
866.958008	42907.992188
865.787109	43316.378906
864.616211	42834.496094
863.444336	43364.390625
862.272461	43349.972656
861.100586	42945.144531
859.928711	43013.992188
858.756836	43274.746094
857.583984	43550.324219
856.411133	43152.148438
855.238281	43333.863281
854.065430	43178.808594
852.891602	43245.390625
851.718750	43207.566406
850.544922	43393.390625
849.370117	43319.347656
848.196289	43485.914062
847.021484	43309.703125
845.847656	43735.855469
844.671875	43836.281250
843.497070	43534.578125
842.322266	42956.460938
841.146484	43518.464844
839.970703	43895.265625
838.794922	43604.394531
837.618164	43470.917969
836.442383	43596.750000
835.265625	43809.652344
834.088867	43661.332031
832.911133	43432.359375
831.734375	43511.378906
830.556641	43405.656250
829.378906	43474.035156
828.201172	43642.140625
827.023438	44128.472656
825.844727	43231.359375
824.666016	43755.765625
823.487305	43906.718750
822.308594	44085.179688
821.128906	43943.449219
819.949219	43784.812500
818.769531	44177.234375
817.589844	43592.722656
816.410156	44228.648438
815.229492	43779.898438
814.048828	43456.253906
812.868164	43945.753906
811.687500	44255.132812
810.505859	43963.324219
809.324219	43982.679688
808.142578	43781.996094
806.960938	44050.980469
805.779297	43750.957031
804.596680	44108.652344
803.414062	43956.710938
802.231445	44007.742188
801.047852	43881.234375
799.865234	44111.855469
798.681641	43395.968750
797.498047	43677.281250
796.314453	44287.925781
795.129883	43990.449219
793.946289	43697.304688
792.761719	43537.234375
791.577148	43803.480469
790.391602	44215.199219
789.207031	44109.960938
788.021484	44150.281250
786.835938	44026.109375
785.649414	43486.660156
784.463867	43900.156250
783.277344	43645.433594
782.090820	43799.574219
780.904297	43825.144531
779.717773	44033.953125
778.530273	43987.871094
777.342773	43663.875000
776.155273	43843.121094
774.967773	43851.816406
773.779297	43774.226562
772.590820	43580.949219
771.402344	43892.589844
770.213867	44006.417969
769.025391	43726.984375
767.835938	43842.898438
766.646484	43605.636719
765.457031	43799.285156
764.267578	44005.468750
763.077148	43566.621094
761.886719	43884.089844
760.696289	43762.531250
759.505859	43949.660156
758.314453	43979.277344
757.124023	43503.054688
755.932617	43839.113281
754.741211	43690.390625
753.548828	43575.285156
752.357422	43789.496094
751.165039	43879.906250
749.972656	43859.164062
748.779297	43991.445312
747.586914	43983.265625
746.393555	43696.398438
745.200195	44109.359375
744.006836	43784.871094
742.813477	43690.863281
741.619141	44130.804688
740.424805	43670.417969
739.230469	43879.964844
738.036133	43359.105469
736.840820	43855.261719
735.645508	43801.078125
734.450195	43723.906250
733.254883	43874.687500
732.058594	43839.339844
730.863281	44046.480469
729.666992	43956.773438
728.470703	43842.023438
727.273438	43965.472656
726.077148	44126.472656
724.879883	44253.996094
723.682617	43819.812500
722.484375	43767.808594
721.287109	44001.769531
720.088867	44243.984375
718.890625	44227.398438
717.692383	43831.160156
716.493164	43693.683594
715.294922	43796.062500
714.095703	44357.062500
712.896484	44165.363281
711.696289	43990.406250
710.497070	44286.425781
709.296875	44284.417969
708.096680	44044.960938
706.895508	44126.300781
705.695312	44074.347656
704.494141	44290.957031
703.292969	43976.742188
702.091797	43606.457031
700.890625	44093.500000
699.688477	44268.332031
698.486328	44274.636719
697.284180	44399.460938
696.082031	44212.382812
694.878906	44054.472656
693.675781	44231.218750
692.472656	44085.828125
691.269531	44310.281250
690.065430	44495.179688
688.862305	44270.902344
687.658203	44331.160156
686.453125	44111.140625
685.249023	44009.511719
684.043945	44291.816406
682.838867	44420.484375
681.633789	44154.968750
680.428711	44227.613281
679.222656	44493.070312
678.017578	44345.859375
676.811523	44296.121094
675.604492	44221.531250
674.398438	44236.066406
673.191406	44062.074219
671.984375	44306.539062
670.777344	43848.882812
669.570312	44668.890625
668.362305	44451.464844
667.154297	44521.812500
665.946289	44490.730469
664.738281	44246.558594
663.529297	44163.824219
662.320312	44472.000000
661.111328	44238.300781
659.902344	43926.125000
658.692383	44199.031250
657.483398	44054.371094
656.273438	44165.980469
655.063477	44298.203125
653.852539	44680.296875
652.641602	44380.765625
651.431641	44269.230469
650.219727	44124.710938
649.008789	44351.746094
647.796875	44283.609375
646.585938	44308.339844
645.374023	44409.378906
644.161133	44159.773438
642.949219	44112.335938
641.736328	44198.917969
640.523438	44392.652344
639.310547	43881.500000
638.096680	44120.542969
636.883789	44137.011719
635.669922	44190.542969
634.456055	43972.222656
633.241211	44060.765625
632.027344	44176.027344
630.812500	43966.062500
629.597656	44375.558594
628.382812	43801.472656
627.166992	44060.683594
625.951172	44136.753906
624.735352	44054.464844
623.519531	44017.437500
622.303711	43737.875000
621.086914	43988.621094
619.870117	43937.234375
618.653320	44066.644531
617.435547	44072.769531
616.218750	44109.691406
615.000977	43842.730469
613.783203	44156.800781
612.564453	43873.511719
611.346680	44160.777344
610.127930	43961.703125
608.909180	44004.746094
607.690430	44256.953125
606.470703	44217.902344
605.250977	43893.906250
604.031250	43774.996094
602.811523	44410.269531
601.591797	44477.753906
600.371094	43926.558594
599.150391	44299.277344
597.929688	44094.386719
596.708984	44282.664062
595.487305	44016.441406
594.265625	44171.914062
593.043945	44051.089844
591.822266	44091.925781
590.599609	44472.292969
589.376953	44181.730469
588.154297	44257.273438
586.931641	44216.261719
585.708984	44379.656250
584.485352	44183.324219
583.261719	44281.277344
582.038086	44242.328125
580.813477	44221.769531
579.589844	44186.925781
578.365234	44684.953125
577.140625	44607.164062
575.915039	44531.441406
574.690430	44596.539062
573.464844	44557.566406
572.239258	44818.441406
571.012695	44544.914062
569.787109	44481.500000
568.560547	44210.171875
567.333984	44185.562500
566.107422	44910.871094
564.879883	44786.304688
563.652344	44999.925781
562.425781	45003.691406
561.197266	44942.296875
559.969727	45084.507812
558.741211	45047.539062
557.512695	45256.832031
556.284180	45618.648438
555.055664	45719.933594
553.826172	45867.957031
552.596680	46223.347656
551.367188	46493.207031
550.137695	46285.250000
548.907227	46077.371094
547.676758	46117.480469
546.446289	45539.941406
545.215820	45240.902344
543.985352	45110.542969
542.753906	44931.496094
541.522461	44921.015625
540.291016	44857.765625
539.058594	44374.453125
537.826172	44601.468750
536.593750	44471.363281
535.361328	44377.812500
534.128906	44363.378906
532.895508	44344.894531
531.662109	43848.023438
530.428711	44206.605469
529.195312	44250.972656
527.960938	43930.648438
526.726562	44047.964844
525.492188	43687.292969
524.257812	43413.820312
523.022461	43885.437500
521.788086	43802.285156
520.552734	43836.539062
519.316406	43666.421875
518.081055	43985.910156
516.844727	43838.074219
515.608398	43686.246094
514.372070	43736.648438
513.134766	43833.523438
511.898438	43778.785156
510.661133	43637.179688
509.423828	43647.140625
508.185547	43750.011719
506.947266	43352.011719
505.709961	43448.835938
504.470703	43612.238281
503.232422	43486.957031
501.993164	43815.761719
500.754883	43619.867188
499.515625	43730.660156
498.275391	43994.687500
497.036133	43641.585938
495.795898	43597.070312
494.555664	43854.921875
493.314453	43800.300781
492.074219	43783.984375
490.833008	43604.492188
489.591797	43692.949219
488.350586	43680.679688
487.108398	43678.484375
485.867188	44010.445312
484.625000	43929.687500
483.382812	43792.617188
482.139648	43925.187500
480.896484	44047.648438
479.653320	44341.003906
478.410156	44055.156250
477.166992	44145.351562
475.922852	43618.449219
474.678711	43913.664062
473.434570	43927.476562
472.190430	44031.683594
470.945312	44053.496094
469.700195	44009.035156
468.455078	44161.343750
467.209961	44064.683594
465.963867	44020.242188
464.718750	43989.855469
463.472656	43662.566406
462.225586	43529.960938
460.979492	43613.992188
459.732422	43601.742188
458.485352	43671.691406
457.238281	43817.769531
455.990234	43635.152344
454.742188	44155.843750
453.494141	43588.621094
452.246094	43914.847656
450.998047	43417.964844
449.749023	43820.175781
448.500000	43847.921875
447.250977	43865.652344
446.000977	43361.140625
444.751953	43294.933594
443.501953	43652.769531
442.251953	43346.554688
441.000977	43510.308594
439.750977	43486.089844
438.500000	43429.898438
437.249023	43018.042969
435.997070	43429.460938
434.746094	43405.265625
433.494141	42943.714844
432.242188	43083.351562
430.989258	43053.242188
429.737305	42997.195312
428.484375	43242.500000
427.231445	43084.675781
425.978516	43545.312500
424.724609	43138.179688
423.470703	43078.171875
422.216797	42553.648438
420.962891	42924.328125
419.708008	43320.773438
418.454102	43288.664062
417.199219	43184.843750
415.943359	42515.382812
414.688477	42853.847656
413.432617	42572.957031
412.176758	42752.019531
410.920898	42811.597656
409.664062	43115.910156
408.408203	42954.546875
407.151367	42554.542969
405.893555	43047.664062
404.636719	43222.445312
403.378906	42985.628906
402.121094	42742.941406
400.863281	42677.210938
399.605469	42957.230469
398.346680	43036.500000
397.087891	42871.437500
395.829102	42954.656250
394.570312	43246.316406
393.310547	43035.644531
392.050781	42825.050781
390.791016	43130.453125
389.531250	43245.277344
388.270508	43094.265625
387.009766	42746.976562
385.749023	42933.183594
384.488281	43069.757812
383.226562	42736.535156
381.964844	42726.449219
380.703125	42950.156250
379.441406	42874.660156
378.178711	42747.695312
376.916016	42701.964844
375.653320	42806.710938
374.390625	42636.277344
373.126953	42418.410156
371.864258	42576.570312
370.599609	42904.796875
369.335938	42267.683594
368.072266	42255.707031
366.807617	42528.441406
365.542969	42439.320312
364.277344	42271.179688
363.012695	42116.929688
361.747070	42861.652344
360.481445	42442.660156
359.215820	42535.320312
357.949219	42464.058594
356.683594	42444.152344
355.416992	42540.699219
354.149414	42278.050781
352.882812	42396.296875
351.615234	42435.585938
350.347656	42173.101562
349.080078	42172.976562
347.811523	42263.542969
346.543945	42328.445312
345.275391	42493.828125
344.005859	42280.832031
342.737305	42044.277344
341.467773	42057.949219
340.198242	42298.085938
338.928711	41957.300781
337.659180	41791.843750
336.388672	41718.949219
335.118164	41842.859375
333.847656	41856.546875
332.576172	41787.609375
331.305664	41828.832031
330.034180	42047.000000
328.761719	41822.753906
327.490234	42202.007812
326.217773	41977.812500
324.945312	41871.589844
323.672852	41871.484375
322.400391	41580.695312
321.126953	41458.890625
319.853516	41735.679688
318.580078	41714.000000
317.305664	42092.683594
316.032227	41674.578125
314.757812	41705.882812
313.483398	41556.722656
312.208008	41707.656250
310.933594	41319.347656
309.658203	41636.890625
308.382812	41581.925781
307.106445	41554.414062
305.830078	41479.890625
304.554688	41231.058594
303.277344	41264.332031
302.000977	41178.152344
300.723633	41248.617188
299.446289	41295.566406
298.168945	41268.128906
296.891602	40996.128906
295.613281	41232.843750
294.334961	41502.718750
293.056641	41260.156250
291.778320	41187.773438
290.499023	41193.609375
289.219727	40961.011719
287.940430	40712.867188
286.661133	40890.699219
285.380859	40837.980469
284.100586	40847.769531
282.820312	40586.160156
281.539062	40736.542969
280.258789	40564.832031
278.977539	40641.003906
277.696289	40525.949219
276.414062	40494.816406
275.132812	40264.765625
273.850586	40473.519531
272.568359	40321.539062
271.285156	40419.097656
270.002930	40298.359375
268.719727	40201.046875
267.435547	40756.351562
266.152344	40442.796875
264.868164	40581.125000
263.583984	40674.617188
262.299805	40622.085938
261.015625	40581.250000
259.730469	41143.617188
258.445312	41635.734375
257.160156	41952.609375
255.875000	42174.070312
254.588867	42185.464844
253.302734	41827.500000
252.016602	41561.019531
250.730469	41131.414062
249.443359	40216.265625
248.156250	40818.511719
246.869141	40111.566406
245.581055	40393.218750
244.293945	39812.812500
243.005859	40059.472656
241.717773	39898.511719
240.428711	39857.906250
239.139648	39972.500000
237.850586	39499.386719
236.561523	39356.101562
235.272461	39763.468750
233.982422	39610.492188
232.692383	39360.671875
231.402344	39333.769531
230.112305	39589.718750
228.821289	39574.402344
227.530273	39322.835938
226.239258	39344.359375
224.947266	39476.210938
223.655273	38984.808594
222.363281	39296.636719
221.071289	38960.226562
219.779297	39122.992188
218.486328	38697.781250
217.193359	38777.390625
215.900391	38876.296875
214.606445	38832.132812
213.313477	38434.351562
212.019531	38444.386719
210.724609	38775.078125
209.430664	38551.347656
208.135742	38358.593750
206.840820	38438.128906
205.545898	38297.585938
204.250000	38546.925781
202.954102	38086.117188
201.658203	38395.203125
200.362305	37865.160156
199.066406	38044.960938
197.769531	37964.414062
196.472656	37816.425781
195.174805	37620.308594
193.877930	37431.976562
192.580078	37657.914062
191.282227	37346.367188
189.984375	37462.464844
188.685547	37389.824219
187.386719	37621.367188
186.087891	37548.718750
184.789062	37427.988281
183.489258	37497.773438
182.189453	37507.898438
180.889648	37606.488281
179.589844	37555.054688
178.289062	37482.492188
176.988281	37421.484375
175.687500	37233.667969
174.386719	37151.597656
173.084961	37388.441406
171.783203	37477.300781
170.481445	36890.195312
169.179688	37313.175781
167.876953	37258.031250
166.574219	36773.015625
165.271484	36992.378906
163.968750	37453.378906
162.665039	36964.761719
161.361328	37320.113281
160.057617	36854.710938
158.752930	37022.082031
157.449219	36756.238281
156.144531	36695.531250
154.838867	37159.785156
153.534180	37123.921875
152.228516	36714.621094
150.922852	36876.070312
149.617188	36801.988281
148.310547	36563.328125
147.004883	36713.226562
145.698242	36859.238281
144.390625	36266.812500
143.083984	36617.492188
141.776367	36620.019531
140.468750	36785.050781
139.161133	36873.554688
137.852539	36744.164062
136.543945	36295.730469
135.235352	35879.945312
133.926758	36218.757812
132.617188	35596.906250
131.308594	35320.863281
129.998047	34920.847656
128.688477	34536.253906
127.377930	34485.726562
126.068359	34570.671875
124.756836	34850.136719
123.446289	35186.703125
122.134766	34607.937500
120.823242	33400.312500
119.511719	31453.650391
