#Wave		#Intensity
2199.120117	12357.325195
2198.186523	12346.607422
2197.252930	12253.393555
2196.320312	12428.058594
2195.386719	12310.759766
2194.453125	12413.059570
2193.518555	12327.927734
2192.584961	12387.362305
2191.650391	12278.178711
2190.716797	12348.303711
2189.782227	12536.113281
2188.847656	12277.171875
2187.912109	12392.722656
2186.977539	12433.364258
2186.041992	12441.912109
2185.107422	12552.026367
2184.171875	12448.305664
2183.236328	12256.445312
2182.299805	12473.394531
2181.364258	12380.424805
2180.427734	12413.004883
2179.492188	12346.777344
2178.555664	12459.441406
2177.619141	12262.436523
2176.681641	12460.476562
2175.745117	12719.818359
2174.807617	12154.706055
2173.871094	12424.679688
2172.933594	12531.876953
2171.996094	12588.374023
2171.057617	12580.867188
2170.120117	12608.014648
2169.181641	12352.654297
2168.244141	12611.652344
2167.305664	12646.771484
2166.367188	12324.942383
2165.427734	12687.675781
2164.489258	12381.926758
2163.550781	12584.785156
2162.611328	12614.552734
2161.671875	12678.907227
2160.732422	12514.398438
2159.792969	12589.389648
2158.852539	12632.433594
2157.913086	12577.058594
2156.972656	12503.088867
2156.032227	12636.517578
2155.091797	12615.725586
2154.151367	12478.000000
2153.209961	12340.322266
2152.269531	12526.821289
2151.328125	12500.748047
2150.386719	12503.898438
2149.445312	12485.802734
2148.503906	12632.321289
2147.561523	12590.319336
2146.620117	12564.254883
2145.677734	12503.703125
2144.735352	12342.352539
2143.792969	12711.590820
2142.850586	12749.174805
2141.908203	12590.515625
2140.964844	12394.792969
2140.021484	12602.064453
2139.078125	12488.567383
2138.134766	12740.798828
2137.191406	12481.596680
2136.248047	12365.529297
2135.303711	12535.544922
2134.359375	12485.709961
2133.415039	12613.282227
2132.470703	12740.809570
2131.526367	12688.317383
2130.582031	12585.563477
2129.636719	12699.798828
2128.691406	12731.990234
2127.746094	12750.944336
2126.800781	12640.315430
2125.855469	12688.362305
2124.910156	12831.557617
2123.963867	12818.763672
2123.017578	12758.407227
2122.071289	12803.755859
2121.125000	12714.363281
2120.178711	12564.252930
2119.232422	12802.385742
2118.285156	12750.001953
2117.337891	12826.989258
2116.390625	12859.079102
2115.443359	12653.654297
2114.496094	12983.909180
2113.548828	12683.563477
2112.600586	12742.030273
2111.652344	13000.894531
2110.704102	12814.077148
2109.755859	12632.595703
2108.807617	12691.028320
2107.859375	12725.722656
2106.910156	12594.412109
2105.960938	12961.039062
2105.011719	12750.713867
2104.062500	12972.346680
2103.113281	12914.805664
2102.163086	12736.186523
2101.213867	12736.610352
2100.263672	12731.771484
2099.313477	13071.614258
2098.363281	12937.812500
2097.413086	12767.233398
2096.461914	12972.773438
2095.511719	12899.531250
2094.560547	12944.614258
2093.609375	12871.402344
2092.658203	12900.705078
2091.706055	12727.678711
2090.754883	12799.029297
2089.802734	12996.430664
2088.850586	12923.270508
2087.898438	13028.681641
2086.946289	13055.298828
2085.994141	12942.792969
2085.041016	13098.006836
2084.088867	12922.558594
2083.135742	12909.823242
2082.182617	12912.828125
2081.229492	12855.515625
2080.275391	12913.590820
2079.322266	12953.295898
2078.368164	13441.200195
2077.414062	12985.489258
2076.459961	12922.969727
2075.505859	13201.041992
2074.551758	12955.154297
2073.596680	12905.765625
2072.642578	13078.958008
2071.687500	13003.384766
2070.732422	13166.029297
2069.777344	13192.530273
2068.821289	13297.520508
2067.866211	13245.503906
2066.910156	12884.855469
2065.954102	13052.607422
2064.998047	13186.308594
2064.041992	13050.688477
2063.084961	13113.767578
2062.128906	13061.834961
2061.171875	12978.564453
2060.214844	13404.760742
2059.257812	13107.270508
2058.300781	13136.332031
2057.343750	13045.270508
2056.385742	13272.745117
2055.427734	13330.473633
2054.469727	13038.471680
2053.511719	13218.858398
2052.553711	13193.081055
2051.594727	13138.620117
2050.636719	13125.904297
2049.677734	13123.623047
2048.718750	13139.591797
2047.759766	13199.866211
2046.800781	12999.503906
2045.840820	13273.448242
2044.881836	13182.561523
2043.921875	13268.833008
2042.961914	13279.547852
2042.001953	13175.686523
2041.041016	13332.205078
2040.081055	13178.914062
2039.120117	13246.889648
2038.159180	13114.482422
2037.198242	13302.120117
2036.237305	13255.586914
2035.276367	13271.485352
2034.314453	13266.577148
2033.353516	13324.064453
2032.391602	13207.375000
2031.429688	13142.703125
2030.467773	13098.840820
2029.504883	13200.482422
2028.542969	13299.490234
2027.580078	13151.738281
2026.617188	13222.156250
2025.654297	13404.185547
2024.691406	13381.085938
2023.727539	13194.491211
2022.764648	13389.403320
2021.800781	13431.176758
2020.836914	13421.057617
2019.873047	13465.404297
2018.909180	13302.291016
2017.944336	13357.012695
2016.980469	13505.031250
2016.015625	13383.461914
2015.050781	13230.839844
2014.085938	13347.711914
2013.121094	13438.639648
2012.155273	13177.311523
2011.190430	13320.024414
2010.224609	13434.208984
2009.258789	13273.968750
2008.292969	13370.003906
2007.326172	13478.942383
2006.360352	13494.705078
2005.393555	13277.656250
2004.426758	13642.593750
2003.459961	13332.503906
2002.493164	13524.083984
2001.526367	13157.253906
2000.558594	13382.394531
1999.591797	13581.616211
1998.624023	13302.807617
1997.656250	13582.048828
1996.687500	13507.367188
1995.719727	13479.190430
1994.750977	13484.586914
1993.783203	13559.675781
1992.814453	13647.642578
1991.845703	13500.759766
1990.875977	13392.626953
1989.907227	13467.677734
1988.937500	13351.850586
1987.968750	13568.706055
1986.999023	13393.602539
1986.029297	13514.997070
1985.058594	13484.291016
1984.088867	13373.712891
1983.118164	13592.948242
1982.147461	13423.142578
1981.176758	13590.782227
1980.206055	13493.135742
1979.235352	13596.339844
1978.263672	13390.612305
1977.292969	13571.006836
1976.321289	13373.074219
1975.349609	13509.670898
1974.376953	13659.081055
1973.405273	13674.701172
1972.433594	13548.885742
1971.460938	13654.502930
1970.488281	13603.280273
1969.515625	13492.961914
1968.542969	13552.278320
1967.569336	13619.281250
1966.596680	13616.904297
1965.623047	13450.156250
1964.649414	13632.693359
1963.675781	13743.279297
1962.701172	13581.728516
1961.727539	13471.564453
1960.752930	13612.911133
1959.779297	13769.601562
1958.804688	13626.113281
1957.829102	13626.298828
1956.854492	13708.540039
1955.879883	13803.570312
1954.904297	13596.090820
1953.928711	13783.372070
1952.953125	13496.530273
1951.977539	13573.595703
1951.000977	13666.001953
1950.025391	13607.270508
1949.048828	13804.625977
1948.072266	13687.003906
1947.095703	13589.900391
1946.119141	13536.338867
1945.141602	13472.560547
1944.165039	13713.257812
1943.187500	13603.425781
1942.209961	13708.464844
1941.232422	13506.615234
1940.254883	13685.777344
1939.276367	13637.373047
1938.297852	13466.309570
1937.320312	13609.608398
1936.341797	13642.997070
1935.362305	13816.867188
1934.383789	13839.991211
1933.405273	13528.594727
1932.425781	13773.877930
1931.446289	13674.468750
1930.466797	13746.090820
1929.487305	13863.619141
1928.506836	13560.141602
1927.527344	13710.821289
1926.546875	13705.873047
1925.566406	13708.575195
1924.585938	13884.642578
1923.605469	13622.208984
1922.624023	13968.987305
1921.642578	13597.058594
1920.662109	13808.688477
1919.680664	13686.549805
1918.698242	13701.983398
1917.716797	13465.317383
1916.735352	13781.204102
1915.752930	13664.245117
1914.770508	13371.717773
1913.788086	13557.678711
1912.805664	13662.160156
1911.822266	13827.654297
1910.839844	13751.478516
1909.856445	13708.386719
1908.873047	13672.935547
1907.889648	13713.754883
1906.906250	14041.748047
1905.921875	13627.639648
1904.938477	13582.063477
1903.954102	13617.787109
1902.969727	13920.167969
1901.985352	13775.531250
1901.000000	13828.972656
1900.015625	13651.402344
1899.030273	13694.694336
1898.044922	13661.845703
1897.059570	13793.916016
1896.074219	13634.230469
1895.088867	13743.432617
1894.102539	13723.274414
1893.116211	13708.194336
1892.129883	13946.600586
1891.143555	13809.834961
1890.157227	13815.016602
1889.169922	13665.653320
1888.183594	13708.853516
1887.196289	13633.004883
1886.208984	13757.223633
1885.221680	13673.797852
1884.233398	13818.213867
1883.246094	13734.805664
1882.257812	13924.707031
1881.269531	13752.759766
1880.281250	13816.115234
1879.292969	13570.904297
1878.304688	13844.143555
1877.315430	13710.250977
1876.326172	13677.514648
1875.336914	13841.916016
1874.347656	13829.380859
1873.358398	13948.222656
1872.368164	13784.115234
1871.378906	13892.820312
1870.388672	13847.457031
1869.398438	13771.814453
1868.408203	13655.809570
1867.416992	13900.740234
1866.426758	13809.986328
1865.435547	13588.075195
1864.444336	13800.095703
1863.453125	13686.708008
1862.461914	13891.071289
1861.469727	13863.422852
1860.478516	13931.567383
1859.486328	13755.228516
1858.494141	13871.243164
1857.501953	13982.177734
1856.509766	13911.713867
1855.516602	13848.829102
1854.523438	13843.879883
1853.530273	13773.475586
1852.537109	13723.232422
1851.543945	13849.172852
1850.550781	13922.227539
1849.556641	13972.614258
1848.562500	13685.927734
1847.569336	13741.367188
1846.574219	13658.491211
1845.580078	13839.615234
1844.585938	13849.751953
1843.590820	14108.684570
1842.595703	14118.769531
1841.600586	14000.726562
1840.605469	13779.740234
1839.610352	14015.898438
1838.614258	13852.737305
1837.618164	14043.609375
1836.622070	13880.500000
1835.625977	13978.444336
1834.629883	13963.442383
1833.633789	14033.741211
1832.636719	14063.881836
1831.639648	14026.300781
1830.642578	14038.879883
1829.645508	13931.120117
1828.648438	13888.567383
1827.650391	14101.647461
1826.652344	14023.999023
1825.655273	13958.904297
1824.657227	13908.859375
1823.658203	13856.328125
1822.660156	14054.201172
1821.661133	14239.486328
1820.663086	14161.892578
1819.664062	13964.203125
1818.664062	13854.157227
1817.665039	13746.650391
1816.666016	13986.851562
1815.666016	14099.426758
1814.666016	13976.930664
1813.666016	13949.472656
1812.666016	13794.550781
1811.665039	13744.642578
1810.665039	14079.533203
1809.664062	13927.166992
1808.663086	14049.601562
1807.662109	13854.839844
1806.661133	13942.287109
1805.659180	13987.265625
1804.658203	14107.104492
1803.656250	14284.298828
1802.654297	14189.466797
1801.652344	14032.301758
1800.649414	14012.372070
1799.647461	13892.699219
1798.644531	14032.372070
1797.641602	14052.336914
1796.638672	13910.286133
1795.634766	13980.105469
1794.631836	14162.018555
1793.627930	13992.620117
1792.625000	13982.683594
1791.621094	14017.574219
1790.616211	13997.676758
1789.612305	14127.147461
1788.607422	14037.546875
1787.603516	13833.506836
1786.598633	13923.127930
1785.593750	14149.535156
1784.587891	14002.786133
1783.583008	14119.681641
1782.577148	13940.666992
1781.571289	14035.159180
1780.565430	13928.297852
1779.559570	14052.578125
1778.553711	14050.100586
1777.546875	13968.133789
1776.541016	13918.481445
1775.534180	13891.196289
1774.527344	14216.476562
1773.519531	13921.051758
1772.512695	14035.248047
1771.504883	14213.921875
1770.497070	13866.550781
1769.489258	13980.694336
1768.481445	14022.872070
1767.473633	13874.094727
1766.464844	14012.967773
1765.457031	13970.834961
1764.448242	13958.457031
1763.439453	13844.486328
1762.429688	14149.259766
1761.420898	13965.935547
1760.411133	13990.714844
1759.401367	13946.151367
1758.391602	13928.835938
1757.381836	13849.642578
1756.372070	14013.018555
1755.361328	14010.545898
1754.350586	14097.139648
1753.339844	14220.805664
1752.329102	14030.334961
1751.318359	14074.840820
1750.307617	14193.500000
1749.295898	14052.569336
1748.284180	14010.546875
1747.272461	14062.435547
1746.260742	14225.480469
1745.249023	14185.916992
1744.236328	14188.351562
1743.223633	14032.752930
1742.210938	13993.243164
1741.198242	14183.305664
1740.185547	13961.154297
1739.171875	14200.504883
1738.159180	13985.828125
1737.145508	13988.291992
1736.131836	14188.049805
1735.118164	14052.392578
1734.103516	14146.057617
1733.089844	14069.612305
1732.075195	14104.093750
1731.060547	14126.242188
1730.045898	13874.923828
1729.030273	14357.712891
1728.015625	13966.066406
1727.000000	14106.411133
1725.984375	14032.525391
1724.968750	14094.041992
1723.953125	14022.643555
1722.937500	14143.192383
1721.920898	13946.343750
1720.904297	14101.297852
1719.887695	14147.989258
1718.871094	14064.347656
1717.854492	14037.278320
1716.836914	14110.992188
1715.820312	14219.084961
1714.802734	14373.822266
1713.785156	14145.270508
1712.766602	14073.996094
1711.749023	14243.410156
1710.730469	14118.125000
1709.711914	14356.207031
1708.693359	14012.499023
1707.674805	14275.054688
1706.656250	14130.221680
1705.636719	14252.832031
1704.618164	14242.953125
1703.598633	14387.570312
1702.579102	14411.995117
1701.558594	14250.102539
1700.539062	14272.090820
1699.518555	14396.994141
1698.498047	14345.444336
1697.477539	14178.776367
1696.457031	14254.642578
1695.436523	14457.820312
1694.415039	14293.667969
1693.393555	14283.793945
1692.372070	14335.111328
1691.350586	14246.924805
1690.329102	14266.422852
1689.306641	14310.375000
1688.285156	14268.708984
1687.262695	14173.258789
1686.240234	14349.227539
1685.216797	14432.244141
1684.194336	14705.866211
1683.170898	14251.191406
1682.148438	14214.462891
1681.125000	14373.166992
1680.100586	14365.736328
1679.077148	14297.260742
1678.052734	14631.648438
1677.029297	14416.687500
1676.004883	14501.994141
1674.980469	14614.112305
1673.955078	14409.025391
1672.930664	14545.511719
1671.905273	14496.595703
1670.879883	14384.297852
1669.854492	14484.144531
1668.829102	14393.825195
1667.803711	14364.464844
1666.777344	14493.500977
1665.750977	14615.181641
1664.724609	14420.159180
1663.698242	14746.382812
1662.671875	14553.839844
1661.644531	14760.629883
1660.618164	14782.353516
1659.590820	14869.778320
1658.563477	14682.214844
1657.535156	14684.476562
1656.507812	14723.222656
1655.479492	14796.001953
1654.451172	14652.349609
1653.422852	14773.736328
1652.394531	14722.501953
1651.366211	14649.414062
1650.336914	14700.270508
1649.307617	14748.678711
1648.278320	15015.673828
1647.249023	14852.728516
1646.219727	14874.374023
1645.189453	14896.010742
1644.160156	15128.806641
1643.129883	14922.271484
1642.099609	15082.188477
1641.068359	14827.216797
1640.038086	15023.474609
1639.006836	15180.861328
1637.975586	15064.208984
1636.944336	15316.075195
1635.913086	15039.470703
1634.881836	15267.016602
1633.849609	15118.931641
1632.817383	15222.835938
1631.786133	15467.181641
1630.752930	15500.758789
1629.720703	15471.373047
1628.688477	15618.711914
1627.655273	15598.995117
1626.622070	15315.516602
1625.588867	15808.787109
1624.555664	15711.635742
1623.521484	15757.216797
1622.487305	15546.454102
1621.454102	15766.125000
1620.419922	15934.953125
1619.384766	16065.049805
1618.350586	16125.023438
1617.315430	16081.084961
1616.281250	15841.498047
1615.246094	16114.011719
1614.209961	16048.364258
1613.174805	16233.828125
1612.139648	16230.942383
1611.103516	16242.538086
1610.067383	16357.888672
1609.031250	16077.532227
1607.995117	16344.835938
1606.958008	16264.753906
1605.920898	16449.943359
1604.884766	16285.489258
1603.847656	16432.041016
1602.809570	16392.968750
1601.772461	16262.344727
1600.734375	16326.909180
1599.696289	16263.786133
1598.659180	16443.923828
1597.620117	16566.208984
1596.582031	16438.074219
1595.542969	16521.802734
1594.504883	16292.642578
1593.465820	16222.371094
1592.426758	16556.287109
1591.386719	16394.591797
1590.347656	16295.478516
1589.307617	16436.845703
1588.267578	16299.294922
1587.227539	16428.591797
1586.187500	16545.826172
1585.146484	16232.926758
1584.106445	16186.794922
1583.065430	16039.799805
1582.024414	15861.637695
1580.983398	16041.291992
1579.941406	16228.083984
1578.900391	16129.186523
1577.858398	15924.735352
1576.816406	16104.248047
1575.774414	16113.374023
1574.732422	16110.504883
1573.689453	15922.986328
1572.646484	16016.053711
1571.603516	16231.344727
1570.560547	15873.733398
1569.517578	15952.380859
1568.473633	15774.637695
1567.430664	15635.284180
1566.386719	15958.225586
1565.342773	15873.964844
1564.298828	15921.414062
1563.253906	15762.981445
1562.208984	15523.230469
1561.165039	15632.931641
1560.120117	15668.424805
1559.074219	15404.896484
1558.029297	15559.999023
1556.983398	15636.134766
1555.938477	15554.451172
1554.892578	15680.757812
1553.846680	15350.541016
1552.799805	15378.867188
1551.753906	15268.616211
1550.707031	15096.298828
1549.660156	15518.710938
1548.613281	15303.428711
1547.566406	15243.402344
1546.518555	15309.905273
1545.470703	15323.879883
1544.423828	15387.957031
1543.375000	15394.754883
1542.327148	15122.475586
1541.279297	15363.029297
1540.230469	15174.304688
1539.181641	15252.652344
1538.132812	15254.697266
1537.083984	15223.377930
1536.035156	15220.661133
1534.985352	15067.861328
1533.935547	15231.901367
1532.885742	15202.986328
1531.835938	15181.224609
1530.786133	15264.215820
1529.735352	15113.920898
1528.684570	15123.121094
1527.633789	15006.214844
1526.583008	15129.616211
1525.532227	15093.616211
1524.480469	15002.933594
1523.429688	15230.881836
1522.377930	14969.049805
1521.326172	15037.678711
1520.273438	14930.434570
1519.221680	14996.668945
1518.168945	15100.885742
1517.116211	14891.559570
1516.063477	15192.850586
1515.010742	15004.949219
1513.958008	15206.413086
1512.904297	15132.495117
1511.850586	15077.586914
1510.796875	14809.171875
1509.743164	15091.174805
1508.688477	14929.576172
1507.634766	15085.781250
1506.580078	14881.565430
1505.525391	15130.166016
1504.470703	14869.135742
1503.415039	14890.172852
1502.360352	15043.873047
1501.304688	14825.631836
1500.249023	15135.592773
1499.193359	14746.927734
1498.137695	14997.604492
1497.081055	14817.397461
1496.024414	14909.411133
1494.967773	14658.298828
1493.911133	14908.809570
1492.854492	14955.814453
1491.796875	14868.002930
1490.740234	14874.801758
1489.682617	14706.658203
1488.625000	14933.296875
1487.567383	14966.073242
1486.508789	14944.493164
1485.450195	14986.704102
1484.392578	14962.764648
1483.333008	14747.551758
1482.274414	14820.466797
1481.215820	15058.601562
1480.156250	14588.580078
1479.096680	15164.122070
1478.037109	14932.546875
1476.977539	14689.259766
1475.917969	14561.626953
1474.857422	14908.021484
1473.796875	14697.875000
1472.736328	14961.615234
1471.675781	14765.674805
1470.615234	14880.851562
1469.553711	14748.606445
1468.492188	14781.298828
1467.430664	14854.016602
1466.369141	14863.129883
1465.307617	14855.758789
1464.245117	14947.253906
1463.182617	14899.859375
1462.120117	14908.956055
1461.057617	14814.532227
1459.995117	14734.254883
1458.931641	15032.643555
1457.869141	14759.541992
1456.805664	14728.685547
1455.742188	14968.150391
1454.677734	14871.463867
1453.614258	14779.509766
1452.549805	14997.691406
1451.485352	14734.282227
1450.420898	14816.183594
1449.356445	15055.371094
1448.291016	14914.165039
1447.226562	14960.781250
1446.161133	14906.470703
1445.095703	14985.918945
1444.030273	15039.533203
1442.963867	14799.943359
1441.897461	14851.224609
1440.832031	15118.194336
1439.764648	14878.716797
1438.698242	14911.205078
1437.631836	15072.566406
1436.564453	14798.080078
1435.497070	14957.059570
1434.429688	15022.296875
1433.362305	14881.442383
1432.294922	15162.065430
1431.226562	14848.011719
1430.158203	14810.241211
1429.089844	14840.342773
1428.021484	14971.036133
1426.953125	15052.559570
1425.883789	14853.402344
1424.814453	14958.299805
1423.745117	14943.924805
1422.675781	15006.691406
1421.606445	15106.828125
1420.536133	15001.303711
1419.465820	14879.461914
1418.395508	14942.193359
1417.325195	14986.217773
1416.254883	14792.058594
1415.183594	15200.283203
1414.112305	14868.440430
1413.041016	15199.491211
1411.969727	14991.430664
1410.898438	15240.688477
1409.826172	15074.678711
1408.754883	15333.159180
1407.682617	15134.547852
1406.609375	15190.108398
1405.537109	15126.778320
1404.464844	15019.194336
1403.391602	15233.179688
1402.318359	15256.067383
1401.245117	15150.844727
1400.170898	15136.477539
1399.097656	15180.322266
1398.023438	15037.922852
1396.949219	15191.157227
1395.875000	15418.800781
1394.800781	15218.268555
1393.725586	15327.188477
1392.651367	15382.576172
1391.576172	15342.605469
1390.500977	15205.000000
1389.424805	15237.133789
1388.349609	15139.105469
1387.273438	15482.609375
1386.197266	15212.650391
1385.121094	15393.417969
1384.044922	15158.407227
1382.967773	15332.152344
1381.891602	15489.583008
1380.814453	15257.000977
1379.737305	15425.991211
1378.659180	15448.739258
1377.582031	15265.005859
1376.503906	15422.303711
1375.425781	15449.676758
1374.347656	15319.369141
1373.269531	15555.390625
1372.190430	15355.576172
1371.112305	15199.863281
1370.033203	15526.139648
1368.954102	15388.983398
1367.874023	15520.548828
1366.794922	15503.860352
1365.714844	15281.113281
1364.634766	15347.808594
1363.554688	15490.857422
1362.474609	15599.143555
1361.394531	15415.869141
1360.313477	15480.175781
1359.232422	15484.326172
1358.151367	15518.535156
1357.070312	15446.379883
1355.988281	15450.532227
1354.907227	15528.638672
1353.825195	15456.519531
1352.743164	15462.975586
1351.660156	15552.584961
1350.578125	15413.522461
1349.495117	15422.290039
1348.412109	15387.189453
1347.329102	15428.273438
1346.246094	15236.250977
1345.162109	15441.170898
1344.079102	15498.369141
1342.995117	15463.283203
1341.911133	15506.618164
1340.827148	15510.740234
1339.742188	15452.615234
1338.657227	15495.927734
1337.573242	15525.396484
1336.488281	15543.333008
1335.402344	15487.545898
1334.317383	15475.539062
1333.231445	15479.656250
1332.145508	15172.944336
1331.059570	15315.234375
1329.973633	15248.026367
1328.886719	15479.995117
1327.800781	15530.120117
1326.713867	15338.689453
1325.626953	15234.725586
1324.539062	15346.952148
1323.452148	15047.598633
1322.364258	15311.530273
1321.276367	15232.923828
1320.188477	15381.833008
1319.100586	15144.717773
1318.012695	15105.231445
1316.923828	15215.039062
1315.834961	15324.805664
1314.746094	15179.700195
1313.657227	15071.373047
1312.567383	15272.902344
1311.477539	15359.630859
1310.388672	15228.386719
1309.297852	15305.916016
1308.208008	15266.458984
1307.118164	14688.189453
1306.027344	15219.680664
1304.936523	15184.842773
1303.845703	14849.812500
1302.754883	14668.414062
1301.663086	14977.313477
1300.571289	15015.834961
1299.480469	14809.313477
1298.387695	14783.742188
1297.295898	14847.456055
1296.204102	15055.336914
1295.111328	14851.243164
1294.018555	15075.062500
1292.925781	14752.086914
1291.832031	14669.373047
1290.739258	14996.001953
1289.645508	14883.550781
1288.551758	14848.857422
1287.458008	14766.182617
1286.364258	15003.440430
1285.269531	14722.004883
1284.174805	14831.268555
1283.081055	14787.478516
1281.985352	14672.918945
1280.890625	14535.571289
1279.794922	14756.630859
1278.700195	14760.807617
1277.604492	14623.516602
1276.508789	14586.651367
1275.412109	14481.373047
1274.316406	14722.763672
1273.219727	14524.014648
1272.123047	14427.919922
1271.026367	14541.550781
1269.928711	14575.380859
1268.832031	14595.526367
1267.734375	14588.329102
1266.636719	14583.411133
1265.539062	14318.895508
1264.440430	14468.847656
1263.342773	14377.450195
1262.244141	14345.259766
1261.145508	14338.111328
1260.046875	14369.642578
1258.947266	14419.358398
1257.848633	14482.702148
1256.749023	14495.997070
1255.649414	14466.089844
1254.549805	14242.983398
1253.449219	14288.128906
1252.348633	14405.969727
1251.249023	14251.147461
1250.148438	14010.067383
1249.046875	14280.049805
1247.946289	14286.544922
1246.844727	14379.303711
1245.743164	14292.716797
1244.641602	14153.965820
1243.540039	14103.752930
1242.438477	14110.270508
1241.335938	14230.192383
1240.233398	14216.274414
1239.130859	14134.341797
1238.028320	14134.046875
1236.924805	14061.223633
1235.821289	14101.729492
1234.717773	13947.374023
1233.614258	13829.318359
1232.510742	13783.778320
1231.406250	13955.639648
1230.302734	14165.925781
1229.198242	14084.130859
1228.093750	14020.470703
1226.988281	14122.015625
1225.883789	14078.731445
1224.778320	13974.388672
1223.672852	14021.608398
1222.567383	13989.669922
1221.460938	13939.656250
1220.355469	13894.180664
1219.249023	13887.139648
1218.142578	13990.816406
1217.036133	13906.950195
1215.928711	13863.770508
1214.822266	14059.981445
1213.714844	13860.996094
1212.607422	13765.924805
1211.500000	13932.704102
1210.391602	14052.032227
1209.284180	14178.085938
1208.175781	13866.465820
1207.067383	14064.678711
1205.958984	14032.810547
1204.849609	14032.516602
1203.740234	14050.255859
1202.631836	14011.643555
1201.521484	13880.658203
1200.412109	13916.436523
1199.302734	13555.755859
1198.192383	13981.197266
1197.082031	14125.019531
1195.971680	14012.139648
1194.861328	13798.008789
1193.750000	13640.217773
1192.638672	13860.498047
1191.527344	13799.487305
1190.416016	13814.973633
1189.304688	13668.536133
1188.192383	13863.916016
1187.081055	13598.375000
1185.968750	13622.875000
1184.855469	13917.032227
1183.743164	13577.480469
1182.629883	13916.464844
1181.517578	13745.485352
1180.404297	13747.477539
1179.290039	13659.661133
1178.176758	13823.290039
1177.062500	13493.099609
1175.948242	13710.552734
1174.833984	13741.712891
1173.719727	13618.083984
1172.605469	13476.557617
1171.490234	13570.525391
1170.375000	13543.396484
1169.259766	13585.761719
1168.144531	13464.512695
1167.028320	13605.466797
1165.912109	13585.068359
1164.796875	13629.633789
1163.679688	13564.448242
1162.563477	13485.851562
1161.447266	13698.307617
1160.330078	13507.802734
1159.212891	13491.916992
1158.095703	13352.977539
1156.977539	13388.576172
1155.860352	13457.709961
1154.742188	13482.094727
1153.624023	13334.312500
1152.505859	13325.178711
1151.386719	13454.616211
1150.268555	13575.067383
1149.149414	13416.203125
1148.030273	13346.747070
1146.910156	13351.015625
1145.791016	13435.668945
1144.670898	13243.455078
1143.550781	13261.131836
1142.430664	13388.156250
1141.310547	13082.256836
1140.190430	13510.440430
1139.069336	13345.151367
1137.948242	13166.541016
1136.827148	13059.345703
1135.705078	13268.749023
1134.583984	13179.404297
1133.461914	13330.766602
1132.339844	13272.634766
1131.217773	13083.091797
1130.095703	13298.977539
1128.972656	13303.234375
1127.849609	13127.145508
1126.726562	13026.805664
1125.603516	13160.194336
1124.479492	13157.794922
1123.356445	12997.432617
1122.232422	13106.283203
1121.108398	13139.476562
1119.984375	13028.123047
1118.859375	13050.202148
1117.734375	13032.261719
1116.609375	13101.000977
1115.484375	13038.617188
1114.359375	13085.113281
1113.233398	12984.993164
1112.108398	12878.248047
1110.982422	13073.510742
1109.856445	12889.087891
1108.729492	13079.836914
1107.603516	13061.915039
1106.476562	13019.593750
1105.349609	13105.951172
1104.222656	13068.071289
1103.094727	13072.337891
1101.966797	13240.669922
1100.839844	13083.082031
1099.711914	13043.015625
1098.583008	12739.270508
1097.455078	12976.218750
1096.326172	12991.569336
1095.197266	12798.733398
1094.068359	13137.396484
1092.939453	12949.030273
1091.809570	12924.530273
1090.679688	12946.512695
1089.549805	13059.206055
1088.419922	12897.537109
1087.290039	13235.807617
1086.159180	12919.361328
1085.028320	12888.256836
1083.897461	12850.531250
1082.766602	12971.957031
1081.635742	13069.029297
1080.503906	12828.020508
1079.372070	12947.172852
1078.240234	13028.734375
1077.108398	12845.277344
1075.975586	13112.284180
1074.843750	13081.190430
1073.710938	12986.103516
1072.577148	13091.853516
1071.444336	13021.066406
1070.311523	13027.508789
1069.177734	12976.606445
1068.043945	12980.848633
1066.910156	13049.021484
1065.775391	12771.110352
1064.640625	13008.987305
1063.506836	12887.624023
1062.372070	12907.295898
1061.236328	13151.624023
1060.101562	12860.731445
1058.965820	12856.176758
1057.830078	13012.323242
1056.694336	12994.535156
1055.558594	12941.543945
1054.421875	13112.988281
1053.285156	13029.196289
1052.148438	12701.305664
1051.011719	12846.311523
1049.875000	12881.334961
1048.737305	12951.515625
1047.599609	13054.635742
1046.461914	12861.076172
1045.324219	12994.931641
1044.186523	12909.083984
1043.047852	12889.150391
1041.909180	12974.619141
1040.770508	13005.172852
1039.631836	12890.848633
1038.492188	13004.797852
1037.352539	12747.896484
1036.212891	12903.508789
1035.073242	12955.978516
1033.933594	12839.572266
1032.792969	12756.095703
1031.652344	12698.955078
1030.511719	12893.882812
1029.371094	12751.275391
1028.230469	12871.629883
1027.088867	13018.225586
1025.947266	12952.326172
1024.805664	12877.691406
1023.664062	12853.437500
1022.521484	12726.312500
1021.378906	13102.590820
1020.236328	12695.388672
1019.093750	12658.057617
1017.951172	12797.911133
1016.807617	12974.890625
1015.664062	12773.539062
1014.520508	12594.122070
1013.376953	12889.067383
1012.233398	12812.402344
1011.088867	12735.765625
1009.944336	12753.089844
1008.799805	12698.331055
1007.655273	12774.614258
1006.509766	12979.683594
1005.364258	12907.449219
1004.218750	12754.488281
1003.073242	12937.625000
1001.927734	12863.254883
1000.781250	12682.028320
999.634766	12906.512695
998.488281	12949.933594
997.341797	12740.448242
996.195312	12927.742188
995.047852	12674.750000
993.900391	12888.132812
992.752930	12685.344727
991.605469	12846.372070
990.457031	12865.790039
989.308594	12741.499023
988.160156	12976.439453
987.011719	12826.054688
985.863281	12738.831055
984.713867	12999.749023
983.564453	12701.521484
982.415039	12675.264648
981.265625	12588.129883
980.115234	13009.764648
978.965820	12920.426758
977.815430	12968.038086
976.664062	12715.771484
975.513672	12852.474609
974.362305	12663.311523
973.211914	13019.313477
972.060547	12791.105469
970.908203	13008.014648
969.756836	12766.869141
968.604492	12721.119141
967.452148	12825.095703
966.299805	13156.809570
965.147461	12768.325195
963.994141	12729.113281
962.841797	12859.026367
961.688477	12847.990234
960.535156	12628.896484
959.380859	12825.928711
958.226562	12821.402344
957.073242	12777.887695
955.918945	12786.365234
954.763672	12963.734375
953.609375	13011.141602
952.454102	12911.343750
951.298828	12885.163086
950.143555	12833.025391
948.988281	12988.585938
947.832031	12927.796875
946.675781	12843.241211
945.519531	12845.201172
944.363281	12918.497070
943.207031	12926.924805
942.049805	12892.130859
940.892578	12680.185547
939.735352	13172.521484
938.578125	12828.857422
937.419922	12839.450195
936.261719	12813.337891
935.103516	12726.793945
933.945312	12858.254883
932.787109	12870.991211
931.627930	12778.010742
930.468750	12885.661133
929.309570	12833.686523
928.150391	12850.727539
926.990234	12943.212891
925.831055	12863.234375
924.670898	12858.708984
923.509766	12630.109375
922.349609	12862.586914
921.188477	12894.676758
920.028320	12829.851562
918.867188	12715.531250
917.705078	12756.238281
916.543945	12829.213867
915.381836	12854.821289
914.219727	12828.786133
913.057617	12865.137695
911.895508	12828.355469
910.732422	12892.646484
909.569336	12679.586914
908.406250	12836.304688
907.243164	12728.635742
906.080078	12865.948242
904.916016	12807.720703
903.751953	13005.105469
902.587891	12676.296875
901.423828	12764.132812
900.258789	12598.632812
899.093750	12710.059570
897.928711	12851.485352
896.763672	12836.241211
895.598633	12782.390625
894.432617	12880.830078
893.266602	12584.688477
892.100586	12811.758789
890.934570	12805.106445
889.767578	12704.161133
888.600586	12768.238281
887.433594	12708.039062
886.266602	12909.171875
885.099609	12842.542969
883.931641	12760.950195
882.763672	12636.573242
881.595703	12987.390625
880.427734	12783.839844
879.258789	12717.291992
878.089844	12732.055664
876.920898	12830.223633
875.751953	12951.876953
874.583008	12874.655273
873.413086	12840.213867
872.243164	12874.171875
871.073242	12645.296875
869.903320	12788.232422
868.732422	13059.271484
867.562500	12755.743164
866.391602	12919.928711
865.220703	12761.701172
864.048828	12742.266602
862.876953	12737.776367
861.706055	12865.571289
860.534180	12754.398438
859.361328	12897.070312
858.189453	12903.214844
857.016602	12868.848633
855.843750	12825.967773
854.670898	12847.039062
853.497070	12746.643555
852.324219	12863.590820
851.150391	12790.918945
849.976562	12686.329102
848.802734	12709.533203
847.627930	12954.129883
846.453125	12919.805664
845.278320	12853.572266
844.103516	12815.022461
842.928711	12857.324219
841.752930	12899.609375
840.577148	12916.359375
839.401367	12992.634766
838.225586	12820.171875
837.048828	13117.468750
835.873047	12991.793945
834.696289	12798.180664
833.518555	12887.148438
832.341797	12884.761719
831.164062	12886.623047
829.987305	12977.646484
828.808594	13021.938477
827.630859	12945.250977
826.453125	12949.217773
825.274414	12906.512695
824.095703	12923.209961
822.916992	12918.695312
821.737305	12831.493164
820.558594	12958.424805
819.378906	13165.845703
818.199219	12991.764648
817.018555	13067.746094
815.838867	13103.452148
814.658203	13177.266602
813.477539	12848.735352
812.296875	13110.986328
811.115234	12979.438477
809.934570	12831.008789
808.752930	12972.509766
807.571289	12957.411133
806.388672	13206.706055
805.207031	12994.900391
804.024414	13187.007812
802.841797	12966.827148
801.659180	12994.011719
800.475586	12962.016602
799.291992	13118.068359
798.109375	13048.040039
796.924805	12999.155273
795.741211	13079.094727
794.556641	12964.775391
793.373047	13173.448242
792.188477	13236.425781
791.002930	12860.498047
789.818359	13242.061523
788.632812	13117.268555
787.447266	12962.998047
786.261719	13009.084961
785.076172	12975.049805
783.889648	13185.513672
782.703125	13202.031250
781.516602	12891.975586
780.330078	13129.720703
779.142578	12946.159180
777.956055	13061.673828
776.768555	13000.298828
775.580078	13124.179688
774.392578	12926.020508
773.204102	12995.160156
772.015625	12999.056641
770.827148	13072.362305
769.638672	13032.080078
768.449219	13069.607422
767.260742	13029.339844
766.071289	13115.194336
764.880859	13169.494141
763.691406	13034.682617
762.500977	13053.266602
761.310547	13122.248047
760.120117	13124.007812
758.929688	13096.375000
757.738281	13203.090820
756.546875	12978.177734
755.355469	12984.157227
754.164062	13252.370117
752.972656	12826.210938
751.780273	12943.361328
750.587891	12949.340820
749.395508	13158.661133
748.202148	12898.413086
747.009766	12923.255859
745.816406	13010.943359
744.623047	13104.881836
743.428711	13050.083984
742.235352	13309.405273
741.041016	12930.080078
739.846680	13227.002930
738.652344	13050.836914
737.457031	13094.442383
736.262695	12822.130859
735.067383	12959.884766
733.872070	13174.963867
732.675781	13208.056641
731.480469	13078.078125
730.284180	13111.173828
729.087891	12828.711914
727.891602	13104.203125
726.694336	12821.845703
725.497070	13005.337891
724.299805	13119.852539
723.102539	12885.666992
721.905273	13121.227539
720.707031	13202.262695
719.508789	13237.361328
718.310547	13017.929688
717.112305	13121.880859
715.913086	13119.436523
714.713867	13200.393555
713.514648	13200.017578
712.315430	13039.154297
711.116211	13086.736328
709.916016	13094.714844
708.715820	13138.102539
707.515625	13189.803711
706.314453	13112.380859
705.114258	13151.575195
703.913086	13261.526367
702.711914	13094.642578
701.510742	13187.916016
700.308594	13023.186523
699.106445	13176.757812
697.904297	13109.832031
696.702148	13132.337891
695.500000	13150.676758
694.296875	13121.203125
693.093750	13208.112305
691.890625	13199.415039
690.686523	12964.296875
689.483398	12972.262695
688.279297	13069.513672
687.075195	13114.825195
685.871094	13151.816406
684.666016	13226.149414
683.460938	13076.359375
682.255859	13302.121094
681.050781	13251.931641
679.845703	13116.735352
678.639648	13331.994141
677.433594	12958.434570
676.227539	13119.752930
675.020508	13301.732422
673.814453	13127.284180
672.607422	13184.905273
671.400391	13285.997070
670.193359	13080.586914
668.985352	13194.081055
667.777344	13214.385742
666.569336	13249.168945
665.361328	13368.773438
664.153320	13026.998047
662.944336	13200.375977
661.735352	13129.666016
660.526367	13110.670898
659.317383	13219.850586
658.107422	13138.840820
656.897461	13140.517578
655.687500	13144.259766
654.477539	13057.109375
653.266602	13269.458008
652.055664	13277.301758
650.844727	13119.981445
649.633789	13175.323242
648.422852	13117.138672
647.210938	13172.459961
645.999023	13128.737305
644.787109	13322.226562
643.575195	13068.146484
642.362305	13012.095703
641.149414	13261.155273
639.936523	13184.476562
638.723633	13128.432617
637.509766	13152.759766
636.295898	13387.185547
635.082031	13156.076172
633.868164	13215.387695
632.654297	13260.265625
631.439453	13088.999023
630.224609	13170.925781
629.009766	13086.157227
627.793945	13093.993164
626.579102	13167.643555
625.363281	13119.937500
624.147461	13210.001953
622.930664	13232.196289
621.714844	13040.634766
620.498047	13243.680664
619.281250	12947.407227
618.064453	13168.879883
616.846680	13254.723633
615.628906	13168.053711
614.411133	13036.250977
613.193359	12888.076172
611.975586	13053.941406
610.756836	13223.846680
609.538086	13157.774414
608.319336	13081.471680
607.099609	13038.007812
605.880859	13049.916016
604.661133	13039.270508
603.441406	13057.321289
602.221680	13102.002930
601.000977	13222.470703
599.780273	13111.429688
598.559570	13268.711914
597.338867	12985.706055
596.117188	13140.905273
594.896484	13103.645508
593.674805	13164.626953
592.453125	13190.801758
591.230469	13227.195312
590.007812	12887.245117
588.786133	13107.719727
587.562500	13274.955078
586.339844	13319.479492
585.116211	13039.032227
583.893555	13167.360352
582.669922	13215.963867
581.445312	13244.122070
580.221680	12992.488281
578.997070	13186.064453
577.772461	13263.205078
576.547852	13219.894531
575.322266	13139.867188
574.096680	13145.561523
572.871094	13130.854492
571.645508	13136.546875
570.419922	13140.198242
569.193359	13308.986328
567.966797	13302.410156
566.740234	13195.974609
565.513672	12975.471680
564.286133	13038.225586
563.058594	13337.229492
561.831055	13035.364258
560.603516	13120.466797
559.375000	13166.858398
558.146484	13262.079102
556.917969	13066.269531
555.689453	13285.579102
554.460938	13077.632812
553.231445	13079.242188
552.001953	13166.253906
550.772461	13133.283203
549.541992	13197.891602
548.312500	13207.604492
547.082031	13164.483398
545.851562	13023.867188
544.620117	13273.276367
543.388672	13228.134766
542.158203	12973.884766
540.926758	13137.902344
539.694336	13100.927734
538.462891	13033.530273
537.230469	12945.868164
535.998047	12923.148438
534.764648	12928.830078
533.532227	13082.528320
532.298828	13053.711914
531.065430	12968.152344
529.832031	13026.507812
528.597656	13026.083008
527.364258	13110.739258
526.129883	13152.830078
524.894531	12921.529297
523.660156	12787.497070
522.424805	13193.985352
521.189453	12920.304688
519.954102	12812.651367
518.718750	13046.941406
517.482422	12927.167969
516.246094	13003.604492
515.009766	12982.958008
513.773438	12830.916992
512.536133	12921.474609
511.299805	12912.978516
510.062500	12900.444336
508.824219	12847.512695
507.586914	12962.233398
506.348633	12856.807617
505.110352	13064.351562
503.872070	12920.592773
502.632812	12764.778320
501.393555	13036.789062
500.154297	13082.750000
498.915039	12886.651367
497.675781	12942.704102
496.435547	12750.737305
495.195312	13093.046875
493.955078	12965.618164
492.714844	12836.222656
491.473633	12990.951172
490.232422	12917.999023
488.991211	12812.850586
487.750000	13023.874023
486.507812	12912.705078
485.265625	13000.846680
484.023438	12825.324219
482.781250	12921.496094
481.538086	12882.847656
480.294922	13051.378906
479.051758	12964.457031
477.808594	12957.990234
476.565430	13043.992188
475.321289	12991.286133
474.077148	13123.464844
472.833008	13137.060547
471.587891	13062.268555
470.342773	13041.728516
469.097656	13033.243164
467.852539	13159.263672
466.607422	13086.529297
465.361328	12887.396484
464.115234	12780.630859
462.869141	13020.943359
461.623047	13148.850586
460.375977	13076.183594
459.128906	12901.295898
457.881836	12732.486328
456.633789	12950.533203
455.386719	12817.843750
454.138672	12969.680664
452.890625	12949.203125
451.642578	13070.916992
450.393555	13008.380859
449.144531	13033.948242
447.895508	12923.406250
446.646484	12910.958984
445.396484	12842.495117
444.146484	12912.079102
442.896484	12893.638672
441.646484	13015.174805
440.396484	12846.781250
439.145508	12914.310547
437.894531	12913.867188
436.643555	12767.565430
435.391602	12849.053711
434.139648	12774.720703
432.887695	12788.279297
431.635742	12795.843750
430.383789	12837.338867
429.130859	12838.901367
427.877930	12930.256836
426.625000	12750.252930
425.371094	12871.508789
424.118164	12733.462891
422.864258	12880.595703
421.610352	12744.591797
420.355469	12750.152344
419.101562	12749.732422
417.846680	12832.991211
416.591797	12734.945312
415.335938	12660.835938
414.081055	12809.774414
412.825195	12646.087891
411.569336	12705.398438
410.312500	12533.832031
409.056641	12628.956055
407.799805	12690.224609
406.542969	12612.239258
405.285156	12538.259766
404.028320	12802.309570
402.770508	12601.097656
401.512695	12831.247070
400.254883	12572.477539
398.996094	12695.260742
397.737305	12746.486328
396.478516	12438.229492
395.219727	12711.872070
393.960938	12731.299805
392.701172	12734.841797
391.441406	12950.720703
390.181641	12640.729492
388.920898	12670.073242
387.660156	12594.287109
386.399414	12770.367188
385.138672	12684.675781
383.877930	12448.368164
382.616211	12693.739258
381.354492	12616.035156
380.092773	12673.075195
378.830078	12678.594727
377.568359	12634.602539
376.305664	12665.865234
375.041992	12827.768555
373.779297	12619.496094
372.515625	12413.281250
371.251953	12592.944336
369.988281	12489.671875
368.724609	12564.432617
367.459961	12577.867188
366.195312	12642.696289
364.930664	12496.005859
363.666016	12614.182617
362.400391	12398.397461
361.134766	12403.945312
359.869141	12543.796875
358.602539	12525.617188
357.336914	12548.905273
356.070312	12358.995117
354.803711	12506.641602
353.536133	12460.855469
352.269531	12651.827148
351.001953	12412.727539
349.734375	12284.155273
348.465820	12504.625977
347.198242	12350.457031
345.929688	12322.487305
344.661133	12377.292969
343.392578	12294.162109
342.123047	12327.283203
340.853516	12397.810547
339.583984	12409.238281
338.314453	12355.692383
337.043945	12337.596680
335.773438	12317.540039
334.502930	12088.923828
333.232422	12245.970703
331.960938	12222.006836
330.690430	12294.409180
329.417969	12415.935547
328.146484	12266.144531
326.875000	12297.222656
325.602539	12416.711914
324.330078	12339.695312
323.056641	12225.386719
321.784180	12448.904297
320.510742	12458.317383
319.237305	12265.524414
317.963867	12208.234375
316.689453	12260.857422
315.415039	12231.055664
314.140625	12218.919922
312.866211	12275.431641
311.590820	12151.520508
310.316406	12455.045898
309.041016	12090.051758
307.764648	12195.536133
306.489258	12110.919922
305.212891	12036.130859
303.936523	12323.716797
302.660156	12215.623047
301.382812	12074.287109
300.105469	12091.562500
298.828125	12147.973633
297.550781	12182.837891
296.273438	12002.485352
294.995117	12195.800781
293.716797	11994.000977
292.437500	11979.983398
291.159180	12057.852539
289.879883	12292.052734
288.600586	11842.208008
287.321289	11941.547852
286.041016	12034.988281
284.761719	11917.464844
283.481445	11762.884766
282.200195	11909.017578
280.919922	12090.227539
279.638672	11853.736328
278.357422	11960.742188
277.076172	11977.968750
275.793945	11897.666992
274.511719	11745.243164
273.229492	11976.965820
271.947266	11816.786133
270.665039	11810.634766
269.381836	11742.129883
268.098633	11773.008789
266.814453	11786.345703
265.531250	11869.785156
264.247070	11733.170898
262.962891	11884.722656
261.678711	11820.170898
260.393555	11664.182617
259.108398	11743.671875
257.823242	11591.647461
256.538086	11571.930664
255.252930	11698.057617
253.966797	11789.141602
252.680664	11627.503906
251.393555	11669.980469
250.107422	11580.317383
248.820312	11624.728516
247.533203	11665.238281
246.246094	11420.273438
244.958008	11567.588867
243.669922	11493.556641
242.381836	11526.294922
241.093750	11743.359375
239.804688	11684.854492
238.516602	11542.965820
237.227539	11564.031250
235.937500	11524.981445
234.648438	11567.366211
233.358398	11379.088867
232.068359	11531.939453
230.778320	11523.922852
229.487305	11326.075195
228.196289	11358.770508
226.905273	11540.549805
225.614258	11356.362305
224.322266	11387.096680
223.030273	11495.226562
221.738281	11318.890625
220.446289	11289.643555
219.153320	11341.638672
217.860352	11447.758789
216.567383	11341.166992
215.274414	11269.409180
213.980469	11307.837891
212.686523	11195.535156
211.392578	11241.690430
210.098633	11168.073242
208.803711	11225.801758
207.508789	10999.681641
206.213867	11171.313477
204.918945	11200.055664
203.623047	11201.771484
202.327148	11118.595703
201.031250	11093.320312
199.735352	11037.196289
198.438477	10967.595703
197.141602	10928.866211
195.844727	10942.193359
194.547852	10886.138672
193.250000	10926.441406
191.952148	10960.949219
190.654297	10912.625977
189.355469	10900.907227
188.057617	10971.978516
186.758789	10902.504883
185.458984	10940.831055
184.160156	10721.306641
182.860352	10936.637695
181.560547	10803.750000
180.260742	10888.215820
178.960938	10641.950195
177.660156	10741.791992
176.359375	10764.717773
175.058594	10933.672852
173.756836	10762.511719
172.455078	10800.785156
171.153320	10593.225586
169.851562	10881.126953
168.548828	10619.878906
167.247070	10715.728516
165.944336	10780.836914
164.640625	10677.083008
163.337891	10653.933594
162.034180	10617.368164
160.730469	10738.051758
159.426758	10599.874023
158.122070	10607.423828
156.817383	10572.809570
155.512695	10430.909180
154.208008	10335.040039
152.902344	10520.755859
151.596680	10451.712891
150.291016	10332.917969
148.985352	10539.582031
147.678711	10328.951172
146.372070	10267.650391
145.065430	10244.634766
143.758789	10315.350586
142.451172	10477.833008
141.143555	10343.892578
139.835938	10349.552734
138.528320	10305.516602
137.219727	10326.467773
135.911133	10196.478516
134.602539	10079.910156
133.292969	9993.942383
131.984375	9881.275391
130.674805	9864.104492
129.364258	9537.730469
128.054688	9461.472656
126.744141	9343.268555
125.433594	9213.664062
124.123047	9026.892578
122.811523	9044.225586
121.500000	8499.136719
120.188477	8301.171875
