#Wave		#Intensity
2199.120117	44906.496094
2198.186523	44702.863281
2197.252930	44995.191406
2196.320312	44462.449219
2195.386719	44955.562500
2194.453125	45408.343750
2193.518555	45419.246094
2192.584961	44704.781250
2191.650391	45462.445312
2190.716797	44839.191406
2189.782227	45104.324219
2188.847656	44887.910156
2187.912109	44914.925781
2186.977539	45139.796875
2186.041992	45123.984375
2185.107422	44945.128906
2184.171875	45103.062500
2183.236328	45156.730469
2182.299805	45798.117188
2181.364258	44991.558594
2180.427734	45152.035156
2179.492188	45678.269531
2178.555664	45470.156250
2177.619141	45398.242188
2176.681641	45430.433594
2175.745117	45513.308594
2174.807617	45097.265625
2173.871094	45268.191406
2172.933594	45241.703125
2171.996094	45489.867188
2171.057617	45383.367188
2170.120117	45343.539062
2169.181641	45452.968750
2168.244141	44920.183594
2167.305664	45756.960938
2166.367188	45088.457031
2165.427734	45341.664062
2164.489258	45783.839844
2163.550781	45105.019531
2162.611328	45701.468750
2161.671875	45645.664062
2160.732422	45722.925781
2159.792969	45164.300781
2158.852539	45422.496094
2157.913086	45534.324219
2156.972656	45390.839844
2156.032227	45518.582031
2155.091797	45574.507812
2154.151367	46055.648438
2153.209961	45205.332031
2152.269531	45540.242188
2151.328125	45479.242188
2150.386719	45755.554688
2149.445312	45604.250000
2148.503906	45548.574219
2147.561523	45970.726562
2146.620117	45400.117188
2145.677734	45835.410156
2144.735352	45869.933594
2143.792969	45936.273438
2142.850586	45564.972656
2141.908203	45753.320312
2140.964844	45695.027344
2140.021484	45896.539062
2139.078125	46055.570312
2138.134766	45785.257812
2137.191406	45893.910156
2136.248047	46137.625000
2135.303711	45920.402344
2134.359375	45851.550781
2133.415039	46293.710938
2132.470703	46034.214844
2131.526367	45750.992188
2130.582031	45941.539062
2129.636719	45637.257812
2128.691406	46015.574219
2127.746094	46192.750000
2126.800781	46092.199219
2125.855469	46084.214844
2124.910156	46060.375000
2123.963867	45920.246094
2123.017578	46298.113281
2122.071289	46308.589844
2121.125000	46049.609375
2120.178711	46149.925781
2119.232422	46366.394531
2118.285156	46342.523438
2117.337891	46392.570312
2116.390625	46197.136719
2115.443359	46281.496094
2114.496094	46212.792969
2113.548828	46360.429688
2112.600586	46523.839844
2111.652344	46476.222656
2110.704102	46325.789062
2109.755859	46497.023438
2108.807617	46539.042969
2107.859375	46668.011719
2106.910156	46920.769531
2105.960938	46578.074219
2105.011719	46293.441406
2104.062500	46490.824219
2103.113281	46798.726562
2102.163086	46766.917969
2101.213867	46532.453125
2100.263672	46969.128906
2099.313477	46811.011719
2098.363281	47208.023438
2097.413086	46784.257812
2096.461914	46749.847656
2095.511719	46967.863281
2094.560547	46723.117188
2093.609375	46612.507812
2092.658203	46780.496094
2091.706055	47282.121094
2090.754883	46895.621094
2089.802734	46987.296875
2088.850586	46968.640625
2087.898438	47388.480469
2086.946289	47217.496094
2085.994141	47235.550781
2085.041016	46967.546875
2084.088867	47074.847656
2083.135742	47281.800781
2082.182617	47139.824219
2081.229492	46958.558594
2080.275391	47320.117188
2079.322266	47456.093750
2078.368164	47083.519531
2077.414062	47070.105469
2076.459961	47675.066406
2075.505859	47653.691406
2074.551758	47187.039062
2073.596680	47561.203125
2072.642578	47364.417969
2071.687500	47625.843750
2070.732422	47308.710938
2069.777344	47651.179688
2068.821289	47213.785156
2067.866211	47621.550781
2066.910156	47746.679688
2065.954102	47288.570312
2064.998047	47709.179688
2064.041992	48011.996094
2063.084961	47747.500000
2062.128906	47906.464844
2061.171875	47853.718750
2060.214844	48043.957031
2059.257812	47957.250000
2058.300781	47614.632812
2057.343750	47998.031250
2056.385742	48034.074219
2055.427734	48111.863281
2054.469727	48387.968750
2053.511719	47802.898438
2052.553711	47938.082031
2051.594727	48174.941406
2050.636719	48343.910156
2049.677734	48189.484375
2048.718750	47923.007812
2047.759766	48310.882812
2046.800781	48039.261719
2045.840820	48085.632812
2044.881836	48387.296875
2043.921875	48683.644531
2042.961914	47982.425781
2042.001953	48161.562500
2041.041016	48233.894531
2040.081055	48194.269531
2039.120117	48227.527344
2038.159180	48042.199219
2037.198242	48702.460938
2036.237305	47973.464844
2035.276367	48472.261719
2034.314453	48385.820312
2033.353516	48668.585938
2032.391602	48296.207031
2031.429688	48290.402344
2030.467773	47993.574219
2029.504883	48372.324219
2028.542969	48254.812500
2027.580078	49059.308594
2026.617188	48544.421875
2025.654297	48330.875000
2024.691406	48107.015625
2023.727539	48306.269531
2022.764648	48707.847656
2021.800781	48281.671875
2020.836914	48683.109375
2019.873047	48415.285156
2018.909180	48738.765625
2017.944336	48903.984375
2016.980469	48221.515625
2016.015625	48438.593750
2015.050781	48505.308594
2014.085938	48499.453125
2013.121094	48374.441406
2012.155273	48959.097656
2011.190430	48492.242188
2010.224609	48473.441406
2009.258789	48905.050781
2008.292969	48554.906250
2007.326172	48639.601562
2006.360352	48576.796875
2005.393555	48759.753906
2004.426758	48909.023438
2003.459961	48944.460938
2002.493164	48530.027344
2001.526367	49113.519531
2000.558594	48872.359375
1999.591797	48959.453125
1998.624023	48653.808594
1997.656250	48722.824219
1996.687500	48662.679688
1995.719727	48729.082031
1994.750977	48637.972656
1993.783203	48598.519531
1992.814453	49041.699219
1991.845703	48548.031250
1990.875977	48506.027344
1989.907227	48861.281250
1988.937500	48847.605469
1987.968750	49037.644531
1986.999023	49227.613281
1986.029297	49525.777344
1985.058594	48986.222656
1984.088867	49369.355469
1983.118164	49538.515625
1982.147461	49398.503906
1981.176758	49189.000000
1980.206055	49036.218750
1979.235352	49491.089844
1978.263672	49132.375000
1977.292969	49291.089844
1976.321289	49557.828125
1975.349609	49127.246094
1974.376953	49555.968750
1973.405273	49578.187500
1972.433594	49338.105469
1971.460938	49159.808594
1970.488281	49688.472656
1969.515625	49443.355469
1968.542969	49398.750000
1967.569336	49277.082031
1966.596680	49327.562500
1965.623047	49408.843750
1964.649414	49420.761719
1963.675781	49332.542969
1962.701172	49452.277344
1961.727539	49790.121094
1960.752930	49399.085938
1959.779297	49901.015625
1958.804688	49589.613281
1957.829102	49791.261719
1956.854492	49315.871094
1955.879883	49573.894531
1954.904297	49739.542969
1953.928711	49735.984375
1952.953125	49622.234375
1951.977539	49359.925781
1951.000977	49640.761719
1950.025391	49519.398438
1949.048828	49725.843750
1948.072266	49978.300781
1947.095703	49288.664062
1946.119141	49774.007812
1945.141602	49819.046875
1944.165039	49748.937500
1943.187500	49696.757812
1942.209961	49821.062500
1941.232422	49912.082031
1940.254883	50082.324219
1939.276367	49375.726562
1938.297852	49556.222656
1937.320312	49846.531250
1936.341797	49521.011719
1935.362305	49747.363281
1934.383789	50114.097656
1933.405273	49990.429688
1932.425781	49974.027344
1931.446289	49314.367188
1930.466797	49976.968750
1929.487305	49399.191406
1928.506836	50130.429688
1927.527344	49958.406250
1926.546875	49850.203125
1925.566406	49254.992188
1924.585938	49937.292969
1923.605469	49609.925781
1922.624023	49789.843750
1921.642578	50030.855469
1920.662109	50210.632812
1919.680664	50273.171875
1918.698242	49676.054688
1917.716797	50232.664062
1916.735352	49712.136719
1915.752930	49573.617188
1914.770508	49552.214844
1913.788086	49825.996094
1912.805664	50173.457031
1911.822266	49722.066406
1910.839844	49799.835938
1909.856445	50019.972656
1908.873047	49462.058594
1907.889648	50020.253906
1906.906250	50024.203125
1905.921875	49964.625000
1904.938477	49861.871094
1903.954102	49896.324219
1902.969727	49907.902344
1901.985352	50142.933594
1901.000000	49608.613281
1900.015625	49952.761719
1899.030273	50421.144531
1898.044922	49402.390625
1897.059570	49751.460938
1896.074219	50217.089844
1895.088867	50071.339844
1894.102539	49905.351562
1893.116211	49843.367188
1892.129883	49601.433594
1891.143555	50053.996094
1890.157227	50108.574219
1889.169922	50051.656250
1888.183594	50326.585938
1887.196289	50130.355469
1886.208984	49936.722656
1885.221680	50074.808594
1884.233398	49888.839844
1883.246094	49920.589844
1882.257812	49944.734375
1881.269531	50156.082031
1880.281250	49919.632812
1879.292969	49938.703125
1878.304688	49752.941406
1877.315430	49815.007812
1876.326172	49662.191406
1875.336914	49845.554688
1874.347656	50443.257812
1873.358398	50042.816406
1872.368164	50132.554688
1871.378906	49914.144531
1870.388672	50276.570312
1869.398438	50217.261719
1868.408203	50077.191406
1867.416992	50012.886719
1866.426758	50082.332031
1865.435547	50040.750000
1864.444336	50165.656250
1863.453125	50235.035156
1862.461914	50218.656250
1861.469727	50366.148438
1860.478516	50440.492188
1859.486328	50303.109375
1858.494141	49906.238281
1857.501953	50383.703125
1856.509766	50468.058594
1855.516602	50549.863281
1854.523438	50470.484375
1853.530273	50436.449219
1852.537109	50281.601562
1851.543945	50393.574219
1850.550781	50616.218750
1849.556641	50307.953125
1848.562500	50248.812500
1847.569336	50048.855469
1846.574219	50268.878906
1845.580078	50727.656250
1844.585938	50550.339844
1843.590820	50609.312500
1842.595703	50670.777344
1841.600586	50470.945312
1840.605469	50057.679688
1839.610352	50769.648438
1838.614258	50564.875000
1837.618164	50709.128906
1836.622070	50238.371094
1835.625977	50412.746094
1834.629883	50594.582031
1833.633789	50487.851562
1832.636719	50549.210938
1831.639648	50781.078125
1830.642578	50982.773438
1829.645508	50625.343750
1828.648438	50791.902344
1827.650391	51006.011719
1826.652344	50982.011719
1825.655273	50727.539062
1824.657227	50791.257812
1823.658203	50772.312500
1822.660156	50705.792969
1821.661133	50744.441406
1820.663086	50788.082031
1819.664062	50786.656250
1818.664062	50620.093750
1817.665039	51026.464844
1816.666016	51132.546875
1815.666016	51211.082031
1814.666016	50904.531250
1813.666016	50835.578125
1812.666016	51321.527344
1811.665039	50937.644531
1810.665039	50561.390625
1809.664062	50672.406250
1808.663086	51195.500000
1807.662109	50956.742188
1806.661133	51002.707031
1805.659180	51363.195312
1804.658203	51067.121094
1803.656250	50753.679688
1802.654297	50582.566406
1801.652344	50957.835938
1800.649414	50993.761719
1799.647461	50899.996094
1798.644531	50848.648438
1797.641602	51041.617188
1796.638672	51144.792969
1795.634766	51120.832031
1794.631836	50959.847656
1793.627930	50908.523438
1792.625000	51086.359375
1791.621094	50977.753906
1790.616211	51135.589844
1789.612305	50685.964844
1788.607422	51032.953125
1787.603516	50961.753906
1786.598633	50781.097656
1785.593750	50816.929688
1784.587891	50994.515625
1783.583008	50779.132812
1782.577148	51113.292969
1781.571289	50723.949219
1780.565430	50409.304688
1779.559570	50835.292969
1778.553711	51283.488281
1777.546875	51078.207031
1776.541016	50788.550781
1775.534180	50250.667969
1774.527344	50986.648438
1773.519531	50764.179688
1772.512695	50921.519531
1771.504883	50840.578125
1770.497070	51161.593750
1769.489258	50517.535156
1768.481445	51570.140625
1767.473633	50670.824219
1766.464844	51415.593750
1765.457031	50997.515625
1764.448242	50738.199219
1763.439453	51046.433594
1762.429688	50727.734375
1761.420898	50535.480469
1760.411133	50992.179688
1759.401367	50782.609375
1758.391602	50830.593750
1757.381836	50905.789062
1756.372070	50535.468750
1755.361328	50442.417969
1754.350586	50408.777344
1753.339844	50808.027344
1752.329102	51034.015625
1751.318359	50802.460938
1750.307617	50610.542969
1749.295898	51009.468750
1748.284180	50651.992188
1747.272461	50694.941406
1746.260742	50898.460938
1745.249023	50820.312500
1744.236328	50660.687500
1743.223633	50780.144531
1742.210938	50176.195312
1741.198242	50582.023438
1740.185547	50733.507812
1739.171875	51003.375000
1738.159180	50619.375000
1737.145508	50889.164062
1736.131836	50640.953125
1735.118164	50984.613281
1734.103516	50492.402344
1733.089844	50969.066406
1732.075195	50839.304688
1731.060547	50852.500000
1730.045898	50961.765625
1729.030273	50598.070312
1728.015625	50473.378906
1727.000000	50723.000000
1725.984375	50622.949219
1724.968750	50778.917969
1723.953125	50267.902344
1722.937500	50847.089844
1721.920898	50695.414062
1720.904297	50644.640625
1719.887695	50367.628906
1718.871094	50754.593750
1717.854492	50784.953125
1716.836914	51046.347656
1715.820312	50961.140625
1714.802734	50544.257812
1713.785156	51056.125000
1712.766602	50826.039062
1711.749023	50925.105469
1710.730469	50921.007812
1709.711914	51150.125000
1708.693359	51192.621094
1707.674805	50803.195312
1706.656250	51093.546875
1705.636719	50687.093750
1704.618164	50943.023438
1703.598633	50850.632812
1702.579102	50814.664062
1701.558594	51055.718750
1700.539062	51080.996094
1699.518555	50648.011719
1698.498047	51035.968750
1697.477539	50914.250000
1696.457031	51321.613281
1695.436523	50837.457031
1694.415039	50728.078125
1693.393555	51091.183594
1692.372070	50888.789062
1691.350586	50936.062500
1690.329102	50814.496094
1689.306641	50849.531250
1688.285156	51143.804688
1687.262695	51100.515625
1686.240234	51040.125000
1685.216797	50965.082031
1684.194336	51171.132812
1683.170898	51232.937500
1682.148438	50881.816406
1681.125000	50819.062500
1680.100586	50973.695312
1679.077148	51230.832031
1678.052734	51160.718750
1677.029297	50900.230469
1676.004883	50925.382812
1674.980469	50918.796875
1673.955078	51217.183594
1672.930664	50944.664062
1671.905273	51069.773438
1670.879883	51165.574219
1669.854492	51156.503906
1668.829102	51123.062500
1667.803711	50987.269531
1666.777344	51061.082031
1665.750977	50481.941406
1664.724609	51060.031250
1663.698242	50924.335938
1662.671875	51416.914062
1661.644531	51351.800781
1660.618164	51087.113281
1659.590820	51559.921875
1658.563477	51202.824219
1657.535156	51062.375000
1656.507812	50688.460938
1655.479492	51053.992188
1654.451172	51066.820312
1653.422852	50724.699219
1652.394531	50963.628906
1651.366211	50777.183594
1650.336914	50513.046875
1649.307617	50861.199219
1648.278320	50699.152344
1647.249023	50287.027344
1646.219727	50588.894531
1645.189453	50502.234375
1644.160156	50893.761719
1643.129883	50758.535156
1642.099609	50543.289062
1641.068359	50488.222656
1640.038086	50416.199219
1639.006836	50826.785156
1637.975586	50235.851562
1636.944336	50740.863281
1635.913086	51073.605469
1634.881836	50461.125000
1633.849609	50583.003906
1632.817383	50518.304688
1631.786133	50322.835938
1630.752930	50328.429688
1629.720703	50133.058594
1628.688477	50601.042969
1627.655273	50526.707031
1626.622070	50324.140625
1625.588867	50523.277344
1624.555664	50613.480469
1623.521484	50362.628906
1622.487305	50595.500000
1621.454102	50431.773438
1620.419922	50248.765625
1619.384766	50409.019531
1618.350586	50412.144531
1617.315430	50294.460938
1616.281250	50481.187500
1615.246094	50365.949219
1614.209961	50103.449219
1613.174805	50319.074219
1612.139648	50609.449219
1611.103516	50298.769531
1610.067383	50364.632812
1609.031250	50370.156250
1607.995117	50279.183594
1606.958008	50219.597656
1605.920898	50700.164062
1604.884766	50416.308594
1603.847656	50388.058594
1602.809570	50422.476562
1601.772461	50124.359375
1600.734375	50163.625000
1599.696289	50169.156250
1598.659180	50186.722656
1597.620117	50240.398438
1596.582031	50354.242188
1595.542969	50056.441406
1594.504883	50215.996094
1593.465820	50108.406250
1592.426758	50407.425781
1591.386719	49919.796875
1590.347656	49749.789062
1589.307617	50058.320312
1588.267578	50383.570312
1587.227539	50377.007812
1586.187500	50072.449219
1585.146484	50224.519531
1584.106445	49860.039062
1583.065430	50161.003906
1582.024414	50497.882812
1580.983398	49924.648438
1579.941406	50208.632812
1578.900391	50684.531250
1577.858398	50022.773438
1576.816406	50330.574219
1575.774414	50460.746094
1574.732422	50060.808594
1573.689453	50308.480469
1572.646484	50364.257812
1571.603516	50467.953125
1570.560547	50322.347656
1569.517578	50555.410156
1568.473633	50769.222656
1567.430664	50060.699219
1566.386719	50813.402344
1565.342773	50311.058594
1564.298828	50158.437500
1563.253906	50688.097656
1562.208984	50377.503906
1561.165039	50174.699219
1560.120117	50909.820312
1559.074219	50305.121094
1558.029297	50580.757812
1556.983398	50210.667969
1555.938477	50361.898438
1554.892578	50087.589844
1553.846680	50377.402344
1552.799805	50186.816406
1551.753906	50407.218750
1550.707031	50405.394531
1549.660156	50145.640625
1548.613281	50303.843750
1547.566406	50495.414062
1546.518555	50168.941406
1545.470703	50293.636719
1544.423828	50437.375000
1543.375000	50099.156250
1542.327148	49880.316406
1541.279297	50353.148438
1540.230469	50546.839844
1539.181641	50571.195312
1538.132812	50602.691406
1537.083984	50610.343750
1536.035156	50103.328125
1534.985352	50373.109375
1533.935547	49956.824219
1532.885742	50414.664062
1531.835938	50581.859375
1530.786133	50268.117188
1529.735352	50509.058594
1528.684570	50604.750000
1527.633789	49867.648438
1526.583008	50339.277344
1525.532227	50468.238281
1524.480469	49798.136719
1523.429688	50179.167969
1522.377930	50163.074219
1521.326172	50325.242188
1520.273438	50126.148438
1519.221680	49884.355469
1518.168945	50362.417969
1517.116211	50006.664062
1516.063477	50211.445312
1515.010742	50081.390625
1513.958008	50153.152344
1512.904297	50198.777344
1511.850586	50218.281250
1510.796875	50135.761719
1509.743164	50458.890625
1508.688477	49702.800781
1507.634766	49857.535156
1506.580078	50450.808594
1505.525391	49652.449219
1504.470703	50162.597656
1503.415039	49682.089844
1502.360352	50293.917969
1501.304688	50052.792969
1500.249023	50027.265625
1499.193359	49895.191406
1498.137695	50073.296875
1497.081055	50005.167969
1496.024414	50064.855469
1494.967773	50365.867188
1493.911133	49751.234375
1492.854492	50210.664062
1491.796875	49915.531250
1490.740234	49856.949219
1489.682617	49365.765625
1488.625000	49468.023438
1487.567383	49908.179688
1486.508789	49596.816406
1485.450195	49576.128906
1484.392578	49964.058594
1483.333008	49582.003906
1482.274414	49764.375000
1481.215820	49727.140625
1480.156250	49661.593750
1479.096680	49832.050781
1478.037109	49535.285156
1476.977539	49571.238281
1475.917969	49512.835938
1474.857422	49577.070312
1473.796875	49612.992188
1472.736328	49625.324219
1471.675781	49206.343750
1470.615234	49305.929688
1469.553711	49704.687500
1468.492188	49083.335938
1467.430664	49672.753906
1466.369141	49308.292969
1465.307617	49694.984375
1464.245117	49323.582031
1463.182617	49696.011719
1462.120117	49230.613281
1461.057617	49139.453125
1459.995117	49678.710938
1458.931641	49135.953125
1457.869141	49451.636719
1456.805664	49503.902344
1455.742188	49245.875000
1454.677734	49284.050781
1453.614258	49138.933594
1452.549805	49372.101562
1451.485352	49149.503906
1450.420898	49079.636719
1449.356445	49599.136719
1448.291016	49653.628906
1447.226562	49172.949219
1446.161133	49323.710938
1445.095703	49110.734375
1444.030273	49001.054688
1442.963867	49069.667969
1441.897461	48894.367188
1440.832031	48852.773438
1439.764648	49423.031250
1438.698242	48753.218750
1437.631836	49627.921875
1436.564453	48899.734375
1435.497070	49174.406250
1434.429688	49078.925781
1433.362305	49009.238281
1432.294922	48934.886719
1431.226562	48862.902344
1430.158203	49088.179688
1429.089844	49154.250000
1428.021484	48983.996094
1426.953125	48820.816406
1425.883789	49331.257812
1424.814453	48831.351562
1423.745117	49147.558594
1422.675781	49351.445312
1421.606445	48753.644531
1420.536133	48782.277344
1419.465820	49011.812500
1418.395508	48972.644531
1417.325195	48711.628906
1416.254883	48730.902344
1415.183594	48488.695312
1414.112305	48358.609375
1413.041016	49082.710938
1411.969727	48705.234375
1410.898438	48717.480469
1409.826172	48820.687500
1408.754883	48814.246094
1407.682617	48733.199219
1406.609375	48703.460938
1405.537109	48601.476562
1404.464844	48359.707031
1403.391602	48756.429688
1402.318359	48456.476562
1401.245117	48505.992188
1400.170898	48557.820312
1399.097656	48283.671875
1398.023438	48519.414062
1396.949219	48410.613281
1395.875000	48799.828125
1394.800781	48316.429688
1393.725586	48703.195312
1392.651367	48459.535156
1391.576172	48418.265625
1390.500977	48428.160156
1389.424805	48368.312500
1388.349609	48605.964844
1387.273438	48432.242188
1386.197266	48395.652344
1385.121094	48110.531250
1384.044922	48568.679688
1382.967773	48650.500000
1381.891602	48407.269531
1380.814453	48289.464844
1379.737305	48440.906250
1378.659180	48174.636719
1377.582031	48221.644531
1376.503906	48301.105469
1375.425781	48273.859375
1374.347656	48636.156250
1373.269531	48288.941406
1372.190430	48356.738281
1371.112305	48208.988281
1370.033203	48452.863281
1368.954102	48212.480469
1367.874023	48472.476562
1366.794922	47882.496094
1365.714844	48251.273438
1364.634766	47934.703125
1363.554688	48044.109375
1362.474609	48033.140625
1361.394531	47959.710938
1360.313477	48496.996094
1359.232422	48226.910156
1358.151367	48132.664062
1357.070312	48096.250000
1355.988281	48071.406250
1354.907227	48106.656250
1353.825195	48109.542969
1352.743164	48135.527344
1351.660156	48189.222656
1350.578125	47670.140625
1349.495117	48254.980469
1348.412109	47846.886719
1347.329102	47849.804688
1346.246094	48035.039062
1345.162109	48017.148438
1344.079102	48038.484375
1342.995117	47736.890625
1341.911133	47862.039062
1340.827148	47809.601562
1339.742188	48063.789062
1338.657227	47389.003906
1337.573242	47841.355469
1336.488281	47851.160156
1335.402344	47787.246094
1334.317383	47893.789062
1333.231445	47645.656250
1332.145508	47844.277344
1331.059570	47985.277344
1329.973633	47599.160156
1328.886719	47650.402344
1327.800781	47535.972656
1326.713867	47683.820312
1325.626953	47438.320312
1324.539062	47563.132812
1323.452148	47743.078125
1322.364258	47688.488281
1321.276367	47656.898438
1320.188477	47331.191406
1319.100586	47596.042969
1318.012695	47603.531250
1316.923828	47443.363281
1315.834961	47868.777344
1314.746094	47235.683594
1313.657227	47475.054688
1312.567383	47409.109375
1311.477539	47044.894531
1310.388672	47733.812500
1309.297852	47300.855469
1308.208008	47246.445312
1307.118164	47231.035156
1306.027344	47536.570312
1304.936523	47369.832031
1303.845703	47198.570312
1302.754883	47641.414062
1301.663086	47651.132812
1300.571289	47566.941406
1299.480469	47171.339844
1298.387695	47185.710938
1297.295898	47419.835938
1296.204102	47287.671875
1295.111328	47466.769531
1294.018555	46984.593750
1292.925781	47305.500000
1291.832031	47363.273438
1290.739258	46753.316406
1289.645508	46973.492188
1288.551758	47038.144531
1287.458008	47164.480469
1286.364258	46858.902344
1285.269531	46727.058594
1284.174805	46926.472656
1283.081055	46933.972656
1281.985352	46799.898438
1280.890625	47092.785156
1279.794922	46725.906250
1278.700195	47075.750000
1277.604492	46670.214844
1276.508789	46894.464844
1275.412109	47104.945312
1274.316406	46838.730469
1273.219727	46638.730469
1272.123047	46732.875000
1271.026367	46735.816406
1269.928711	46586.070312
1268.832031	46450.046875
1267.734375	46872.183594
1266.636719	46626.828125
1265.539062	46511.363281
1264.440430	46218.347656
1263.342773	46419.406250
1262.244141	46474.726562
1261.145508	46143.187500
1260.046875	46714.988281
1258.947266	46583.695312
1257.848633	46234.117188
1256.749023	46330.343750
1255.649414	46401.523438
1254.549805	46672.707031
1253.449219	46325.628906
1252.348633	46376.312500
1251.249023	46118.011719
1250.148438	46502.613281
1249.046875	46071.781250
1247.946289	46283.683594
1246.844727	46127.734375
1245.743164	46364.511719
1244.641602	46224.488281
1243.540039	46293.253906
1242.438477	46416.437500
1241.335938	46038.324219
1240.233398	46193.253906
1239.130859	46284.640625
1238.028320	46115.304688
1236.924805	46347.191406
1235.821289	45951.289062
1234.717773	46631.718750
1233.614258	45832.691406
1232.510742	46261.496094
1231.406250	46176.117188
1230.302734	46090.765625
1229.198242	46340.457031
1228.093750	46094.417969
1226.988281	45832.625000
1225.883789	46231.539062
1224.778320	46062.554688
1223.672852	46051.937500
1222.567383	46319.441406
1221.460938	45990.011719
1220.355469	45821.187500
1219.249023	46624.179688
1218.142578	46516.300781
1217.036133	46153.183594
1215.928711	46025.097656
1214.822266	46326.125000
1213.714844	46100.964844
1212.607422	45995.527344
1211.500000	45928.492188
1210.391602	46107.457031
1209.284180	46178.054688
1208.175781	45813.250000
1207.067383	46301.121094
1205.958984	45925.152344
1204.849609	45988.957031
1203.740234	46012.164062
1202.631836	45981.269531
1201.521484	46031.507812
1200.412109	46140.300781
1199.302734	45990.007812
1198.192383	45760.945312
1197.082031	46509.210938
1195.971680	46052.750000
1194.861328	46132.167969
1193.750000	45867.230469
1192.638672	46097.406250
1191.527344	45978.792969
1190.416016	45999.679688
1189.304688	45959.835938
1188.192383	46059.410156
1187.081055	45761.039062
1185.968750	45685.292969
1184.855469	45638.785156
1183.743164	46057.382812
1182.629883	45867.050781
1181.517578	46213.578125
1180.404297	46164.757812
1179.290039	45920.617188
1178.176758	46262.453125
1177.062500	45948.804688
1175.948242	46124.453125
1174.833984	45647.164062
1173.719727	45838.500000
1172.605469	45731.484375
1171.490234	45763.527344
1170.375000	45943.523438
1169.259766	45997.925781
1168.144531	46067.996094
1167.028320	45750.398438
1165.912109	46252.859375
1164.796875	45935.339844
1163.679688	45776.933594
1162.563477	45833.535156
1161.447266	45574.464844
1160.330078	45836.996094
1159.212891	45645.152344
1158.095703	45764.375000
1156.977539	45534.582031
1155.860352	45644.832031
1154.742188	45533.656250
1153.624023	45793.660156
1152.505859	45599.785156
1151.386719	45309.871094
1150.268555	45500.500000
1149.149414	45460.933594
1148.030273	45892.707031
1146.910156	45529.242188
1145.791016	45346.777344
1144.670898	45414.425781
1143.550781	45211.957031
1142.430664	45214.878906
1141.310547	45066.066406
1140.190430	45414.800781
1139.069336	45442.214844
1137.948242	45768.449219
1136.827148	45059.984375
1135.705078	45118.648438
1134.583984	45043.558594
1133.461914	45449.847656
1132.339844	45078.386719
1131.217773	45090.218750
1130.095703	45168.863281
1128.972656	45138.359375
1127.849609	44796.160156
1126.726562	45217.621094
1125.603516	45300.625000
1124.479492	44936.328125
1123.356445	44781.292969
1122.232422	44826.511719
1121.108398	45018.500000
1119.984375	44963.589844
1118.859375	45053.210938
1117.734375	44956.078125
1116.609375	44818.980469
1115.484375	44833.023438
1114.359375	45155.859375
1113.233398	44852.203125
1112.108398	44781.835938
1110.982422	44436.167969
1109.856445	44705.554688
1108.729492	44841.667969
1107.603516	44695.894531
1106.476562	44698.832031
1105.349609	44894.757812
1104.222656	44527.257812
1103.094727	44652.179688
1101.966797	44624.074219
1100.839844	44810.996094
1099.711914	44800.597656
1098.583008	44683.839844
1097.455078	44722.203125
1096.326172	44873.523438
1095.197266	44767.882812
1094.068359	44604.703125
1092.939453	44547.851562
1091.809570	44453.386719
1090.679688	44994.109375
1089.549805	45058.910156
1088.419922	44813.964844
1087.290039	44852.222656
1086.159180	44868.355469
1085.028320	44698.750000
1083.897461	44586.679688
1082.766602	44640.417969
1081.635742	44981.414062
1080.503906	44524.675781
1079.372070	44399.457031
1078.240234	44473.062500
1077.108398	44908.785156
1075.975586	44644.468750
1074.843750	44556.839844
1073.710938	44906.226562
1072.577148	44661.910156
1071.444336	44744.195312
1070.311523	44711.750000
1069.177734	44891.031250
1068.043945	45310.593750
1066.910156	44810.679688
1065.775391	45124.292969
1064.640625	44814.121094
1063.506836	44352.023438
1062.372070	44597.253906
1061.236328	44525.218750
1060.101562	44708.660156
1058.965820	44755.523438
1057.830078	44800.167969
1056.694336	44754.550781
1055.558594	44878.394531
1054.421875	45206.804688
1053.285156	44501.207031
1052.148438	44541.445312
1051.011719	44612.453125
1049.875000	44663.648438
1048.737305	44798.351562
1047.599609	44609.933594
1046.461914	44445.753906
1045.324219	44024.589844
1044.186523	44462.425781
1043.047852	44643.148438
1041.909180	44485.664062
1040.770508	44609.234375
1039.631836	44451.808594
1038.492188	44652.144531
1037.352539	44837.050781
1036.212891	44054.449219
1035.073242	44708.761719
1033.933594	44522.941406
1032.792969	44385.425781
1031.652344	44173.425781
1030.511719	44533.539062
1029.371094	44371.984375
1028.230469	43960.722656
1027.088867	44625.152344
1025.947266	44089.156250
1024.805664	44538.722656
1023.664062	44429.851562
1022.521484	44021.132812
1021.378906	44396.050781
1020.236328	44571.710938
1019.093750	44837.003906
1017.951172	44351.949219
1016.807617	44199.476562
1015.664062	44484.363281
1014.520508	44353.781250
1013.376953	44323.789062
1012.233398	44473.000000
1011.088867	44611.230469
1009.944336	44107.164062
1008.799805	44470.367188
1007.655273	44309.351562
1006.509766	44277.203125
1005.364258	44000.582031
1004.218750	44468.292969
1003.073242	44678.339844
1001.927734	44192.347656
1000.781250	44561.601562
999.634766	44036.550781
998.488281	44486.371094
997.341797	44500.003906
996.195312	44212.832031
995.047852	44542.503906
993.900391	43989.605469
992.752930	44484.757812
991.605469	43916.820312
990.457031	44170.078125
989.308594	44185.914062
988.160156	44312.765625
987.011719	44067.390625
985.863281	44144.164062
984.713867	43809.699219
983.564453	44343.296875
982.415039	44215.531250
981.265625	44274.816406
980.115234	44334.078125
978.965820	44030.308594
977.815430	43993.964844
976.664062	44344.406250
975.513672	44014.726562
974.362305	44417.164062
973.211914	44330.816406
972.060547	44101.195312
970.908203	44260.250000
969.756836	44262.964844
968.604492	44083.386719
967.452148	44153.390625
966.299805	44255.906250
965.147461	44278.132812
963.994141	44289.507812
962.841797	44430.960938
961.688477	44197.347656
960.535156	44202.222656
959.380859	44254.761719
958.226562	43980.140625
957.073242	44115.011719
955.918945	44299.644531
954.763672	44508.027344
953.609375	44408.910156
952.454102	44623.683594
951.298828	44256.226562
950.143555	43893.230469
948.988281	44642.316406
947.832031	44441.597656
946.675781	44279.878906
945.519531	44369.023438
944.363281	44259.253906
943.207031	44225.171875
942.049805	44236.476562
940.892578	44332.035156
939.735352	44220.187500
938.578125	44207.722656
937.419922	43854.085938
936.261719	44040.316406
935.103516	44194.093750
933.945312	43916.187500
932.787109	43972.828125
931.627930	44320.691406
930.468750	44023.492188
929.309570	43955.000000
928.150391	44162.515625
926.990234	44076.773438
925.831055	43749.656250
924.670898	44226.460938
923.509766	44270.019531
922.349609	43770.707031
921.188477	43896.175781
920.028320	43799.792969
918.867188	43742.203125
917.705078	43736.289062
916.543945	43756.203125
915.381836	43614.726562
914.219727	44226.285156
913.057617	43624.453125
911.895508	43814.265625
910.732422	43748.128906
909.569336	43991.589844
908.406250	43792.175781
907.243164	43870.058594
906.080078	44197.152344
904.916016	43858.171875
903.751953	43903.777344
902.587891	43925.742188
901.423828	43765.195312
900.258789	43645.496094
899.093750	43693.242188
897.928711	44009.203125
896.763672	43385.335938
895.598633	43707.667969
894.432617	43800.398438
893.266602	43895.238281
892.100586	43760.644531
890.934570	43156.679688
889.767578	43626.621094
888.600586	43802.835938
887.433594	43777.609375
886.266602	43715.976562
885.099609	43442.359375
883.931641	43355.117188
882.763672	43188.695312
881.595703	43497.484375
880.427734	43729.121094
879.258789	43738.156250
878.089844	43841.312500
876.920898	43756.218750
875.751953	43433.796875
874.583008	43412.945312
873.413086	44080.386719
872.243164	43550.777344
871.073242	43568.371094
869.903320	43562.453125
868.732422	43513.816406
867.562500	43640.316406
866.391602	44048.605469
865.220703	43609.238281
864.048828	43859.437500
862.876953	43537.632812
861.706055	43772.812500
860.534180	43634.593750
859.361328	43485.757812
858.189453	43816.769531
857.016602	44085.828125
855.843750	44111.777344
854.670898	43619.832031
853.497070	43590.453125
852.324219	43861.476562
851.150391	43970.515625
849.976562	43794.136719
848.802734	43920.179688
847.627930	44014.238281
846.453125	43478.230469
845.278320	44106.480469
844.103516	43745.121094
842.928711	43983.789062
841.752930	44037.328125
840.577148	43848.425781
839.401367	43916.847656
838.225586	44063.894531
837.048828	44110.996094
835.873047	43747.964844
834.696289	44079.789062
833.518555	44014.273438
832.341797	43946.660156
831.164062	43991.605469
829.987305	43949.488281
828.808594	44002.902344
827.630859	44149.671875
826.453125	43925.070312
825.274414	44088.765625
824.095703	44163.316406
822.916992	44218.750000
821.737305	43930.691406
820.558594	44170.570312
819.378906	44321.339844
818.199219	43929.582031
817.018555	44701.097656
815.838867	44167.488281
814.658203	44051.292969
813.477539	44030.421875
812.296875	44064.601562
811.115234	44196.128906
809.934570	43991.121094
808.752930	43919.488281
807.571289	44095.394531
806.388672	44201.429688
805.207031	44366.640625
804.024414	44041.265625
802.841797	44263.515625
801.659180	44200.351562
800.475586	43898.425781
799.291992	44386.777344
798.109375	44241.238281
796.924805	44226.695312
795.741211	44220.601562
794.556641	44396.070312
793.373047	44381.500000
792.188477	44130.566406
791.002930	44223.656250
789.818359	44131.062500
788.632812	43977.335938
787.447266	44654.542969
786.261719	44256.191406
785.076172	44007.656250
783.889648	44028.996094
782.703125	43963.921875
781.516602	44134.843750
780.330078	44187.738281
779.142578	43741.460938
777.956055	44034.453125
776.768555	44116.804688
775.580078	44291.738281
774.392578	44289.824219
773.204102	44302.636719
772.015625	43949.394531
770.827148	44122.117188
769.638672	44010.871094
768.449219	44065.773438
767.260742	43878.898438
766.071289	43986.343750
764.880859	44169.394531
763.691406	44079.246094
762.500977	44442.863281
761.310547	44264.484375
760.120117	44191.160156
758.929688	43975.097656
757.738281	43897.656250
756.546875	44032.203125
755.355469	43950.574219
754.164062	43764.082031
752.972656	43793.699219
751.780273	44221.753906
750.587891	44026.917969
749.395508	44163.375000
748.202148	44366.851562
747.009766	44205.625000
745.816406	43994.167969
744.623047	43983.890625
743.428711	43716.003906
742.235352	43640.859375
741.041016	44210.574219
739.846680	44032.796875
738.652344	43913.683594
737.457031	43825.996094
736.262695	43970.558594
735.067383	44064.863281
733.872070	44058.753906
732.675781	43939.734375
731.480469	43772.675781
730.284180	43866.941406
729.087891	44025.949219
727.891602	43854.785156
726.694336	43999.109375
725.497070	44137.113281
724.299805	43920.078125
723.102539	43913.984375
721.905273	44114.542969
720.707031	44006.148438
719.508789	43935.355469
718.310547	43985.582031
717.112305	44329.890625
715.913086	43887.863281
714.713867	44411.367188
713.514648	43681.804688
712.315430	44098.851562
711.116211	44182.324219
709.916016	43669.882812
708.715820	43945.046875
707.515625	44207.605469
706.314453	44132.730469
705.114258	43955.867188
703.913086	44135.007812
702.711914	43962.367188
701.510742	43979.140625
700.308594	44176.898438
699.106445	44100.019531
697.904297	43975.335938
696.702148	44160.500000
695.500000	44229.179688
694.296875	43782.378906
693.093750	43919.675781
691.890625	43826.296875
690.686523	43874.207031
689.483398	44038.402344
688.279297	44179.691406
687.075195	44017.812500
685.871094	44368.699219
684.666016	44036.667969
683.460938	44596.984375
682.255859	44308.593750
681.050781	44617.671875
679.845703	44117.851562
678.639648	43966.550781
677.433594	44343.925781
676.227539	43937.699219
675.020508	44323.222656
673.814453	43753.468750
672.607422	43981.445312
671.400391	44256.972656
670.193359	44035.421875
668.985352	43942.316406
667.777344	44118.328125
666.569336	43905.203125
665.361328	44225.996094
664.153320	43907.417969
662.944336	44120.531250
661.735352	43862.058594
660.526367	44137.125000
659.317383	44128.875000
658.107422	44089.625000
656.897461	44095.847656
655.687500	44110.332031
654.477539	44137.203125
653.266602	44226.019531
652.055664	44372.621094
650.844727	44126.906250
649.633789	44234.246094
648.422852	43701.781250
647.210938	44023.746094
645.999023	44062.960938
644.787109	44104.222656
643.575195	43900.066406
642.362305	43885.667969
641.149414	44112.460938
639.936523	44069.171875
638.723633	43803.343750
637.509766	43778.664062
636.295898	43642.761719
635.082031	43807.593750
633.868164	43719.089844
632.654297	43785.019531
631.439453	43824.167969
630.224609	43797.445312
629.009766	43651.386719
627.793945	43614.414062
626.579102	43742.000000
625.363281	43731.753906
624.147461	43707.117188
622.930664	43534.480469
621.714844	44190.179688
620.498047	43546.945312
619.281250	43462.773438
618.064453	43483.390625
616.846680	43836.703125
615.628906	43561.558594
614.411133	43370.683594
613.193359	43715.601562
611.975586	43777.183594
610.756836	43596.628906
609.538086	43803.859375
608.319336	43764.886719
607.099609	43762.835938
605.880859	43723.878906
604.661133	43842.777344
603.441406	43449.253906
602.221680	43947.242188
601.000977	43609.156250
599.780273	43385.906250
598.559570	43902.046875
597.338867	44178.429688
596.117188	43799.605469
594.896484	43756.593750
593.674805	43443.472656
592.453125	43678.804688
591.230469	44235.210938
590.007812	43922.167969
588.786133	43740.113281
587.562500	44079.472656
586.339844	43588.792969
585.116211	43791.121094
583.893555	44038.320312
582.669922	43983.070312
581.445312	43770.558594
580.221680	43844.031250
578.997070	43750.046875
577.772461	43999.054688
576.547852	43990.796875
575.322266	43770.308594
574.096680	43545.820312
572.871094	43762.035156
571.645508	44014.878906
570.419922	44206.449219
569.193359	43922.914062
567.966797	43928.937500
566.740234	44022.585938
565.513672	43892.062500
564.286133	43739.175781
563.058594	43777.804688
561.831055	43930.460938
560.603516	44172.644531
559.375000	43877.312500
558.146484	43981.011719
556.917969	43763.152344
555.689453	43907.519531
554.460938	43897.234375
553.231445	44025.246094
552.001953	43770.929688
550.772461	43665.117188
549.541992	43677.238281
548.312500	43801.121094
547.082031	43668.945312
545.851562	43538.843750
544.620117	43802.828125
543.388672	43894.093750
542.158203	43625.957031
540.926758	43668.503906
539.694336	43625.785156
538.462891	43357.843750
537.230469	43487.648438
535.998047	43424.699219
534.764648	43509.820312
533.532227	43211.679688
532.298828	43231.929688
531.065430	43235.957031
529.832031	43424.394531
528.597656	43320.996094
527.364258	42962.386719
526.129883	43326.968750
524.894531	43073.789062
523.660156	43166.914062
522.424805	43069.718750
521.189453	43160.781250
519.954102	42709.515625
518.718750	42786.441406
517.482422	43091.906250
516.246094	42871.449219
515.009766	42938.187500
513.773438	42849.238281
512.536133	42905.843750
511.299805	42948.285156
510.062500	42994.746094
508.824219	42699.800781
507.586914	43105.785156
506.348633	43190.554688
505.110352	42837.183594
503.872070	42697.906250
502.632812	42925.984375
501.393555	42857.359375
500.154297	42685.875000
498.915039	42899.699219
497.675781	42734.316406
496.435547	43121.445312
495.195312	42998.414062
493.955078	42810.929688
492.714844	43032.578125
491.473633	43056.699219
490.232422	42663.843750
488.991211	43114.980469
487.750000	43004.156250
486.507812	42899.414062
485.265625	43066.437500
484.023438	43150.886719
482.781250	43009.949219
481.538086	43027.988281
480.294922	42951.484375
479.051758	43029.851562
477.808594	43369.558594
476.565430	43486.003906
475.321289	42955.253906
474.077148	43467.582031
472.833008	43129.898438
471.587891	43059.488281
470.342773	42691.878906
469.097656	43384.578125
467.852539	43235.859375
466.607422	43083.183594
465.361328	42988.757812
464.115234	43215.386719
462.869141	42892.285156
461.623047	42707.691406
460.375977	43136.765625
459.128906	42739.675781
457.881836	42819.800781
456.633789	43234.578125
455.386719	42871.750000
454.138672	42921.750000
452.890625	43085.894531
451.642578	42863.476562
450.393555	42567.058594
449.144531	42561.015625
447.895508	42961.269531
446.646484	42596.957031
445.396484	42941.031250
444.146484	42672.871094
442.896484	42388.812500
441.646484	42624.746094
440.396484	42264.832031
439.145508	42368.773438
437.894531	42428.707031
436.643555	42614.496094
435.391602	42238.867188
434.139648	42190.929688
432.887695	42210.906250
431.635742	42454.488281
430.383789	42270.796875
429.130859	42093.156250
427.877930	42296.707031
426.625000	42466.261719
425.371094	42105.171875
424.118164	42232.816406
422.864258	42252.738281
421.610352	42027.449219
420.355469	42103.207031
419.101562	42105.203125
417.846680	41957.765625
416.591797	41917.949219
415.335938	41961.796875
414.081055	41989.695312
412.825195	41963.828125
411.569336	42063.371094
410.312500	41941.968750
409.056641	42142.949219
407.799805	41691.335938
406.542969	42242.347656
405.285156	41832.644531
404.028320	41775.015625
402.770508	41786.980469
401.512695	42025.511719
400.254883	41731.406250
398.996094	42190.382812
397.737305	41979.781250
396.478516	41991.683594
395.219727	41757.367188
393.960938	41699.824219
392.701172	41727.644531
391.441406	41910.246094
390.181641	41902.300781
388.920898	41692.019531
387.660156	42007.402344
386.399414	41896.320312
385.138672	41739.683594
383.877930	41598.957031
382.616211	41878.437500
381.354492	41264.164062
380.092773	41521.804688
378.830078	41820.941406
377.568359	41850.636719
376.305664	41822.898438
375.041992	41609.085938
373.779297	41609.109375
372.515625	41803.054688
371.251953	41668.500000
369.988281	41783.234375
368.724609	41565.667969
367.459961	41456.933594
366.195312	41518.261719
364.930664	41253.421875
363.666016	41160.613281
362.400391	41650.710938
361.134766	41638.855469
359.869141	41617.121094
358.602539	41664.511719
357.336914	41806.648438
356.070312	41767.128906
354.803711	42104.574219
353.536133	42441.890625
352.269531	42155.656250
351.001953	42214.714844
349.734375	42465.039062
348.465820	42802.023438
347.198242	42328.652344
345.929688	42807.437500
344.661133	43222.984375
343.392578	43157.632812
342.123047	42909.109375
340.853516	42386.921875
339.583984	42075.625000
338.314453	41604.980469
337.043945	41370.710938
335.773438	40939.730469
334.502930	41205.445312
333.232422	40981.214844
331.960938	40711.832031
330.690430	40936.132812
329.417969	40837.910156
328.146484	40468.449219
326.875000	40659.253906
325.602539	40608.289062
324.330078	40586.812500
323.056641	40869.796875
321.784180	40536.023438
320.510742	40479.222656
319.237305	40711.019531
317.963867	40454.003906
316.689453	40244.183594
315.415039	40122.730469
314.140625	40838.929688
312.866211	40605.613281
311.590820	40590.042969
310.316406	40470.566406
309.041016	40276.648438
307.764648	40292.500000
306.489258	40159.425781
305.212891	40212.507812
303.936523	40247.941406
302.660156	40498.765625
301.382812	40195.414062
300.105469	40252.355469
298.828125	40219.246094
297.550781	40143.097656
296.273438	40278.265625
294.995117	40231.472656
293.716797	40401.769531
292.437500	40298.265625
291.159180	40505.625000
289.879883	40148.046875
288.600586	40208.789062
287.321289	40121.019531
286.041016	40453.265625
284.761719	40224.863281
283.481445	40090.269531
282.200195	40061.152344
280.919922	40315.074219
279.638672	40096.617188
278.357422	40120.191406
277.076172	40288.113281
275.793945	40177.058594
274.511719	40202.546875
273.229492	39664.562500
271.947266	39863.625000
270.665039	39828.734375
269.381836	39928.308594
268.098633	40240.195312
266.814453	40569.492188
265.531250	40540.328125
264.247070	41272.488281
262.962891	41439.816406
261.678711	42397.296875
260.393555	43506.195312
259.108398	45021.300781
257.823242	46924.871094
256.538086	48364.835938
255.252930	49518.406250
253.966797	49629.488281
252.680664	48900.824219
251.393555	46724.621094
250.107422	45320.621094
248.820312	43755.914062
247.533203	42739.523438
246.246094	41707.980469
244.958008	40896.222656
243.669922	40486.593750
242.381836	40113.992188
241.093750	39881.238281
239.804688	39307.128906
238.516602	39404.359375
237.227539	39067.148438
235.937500	38821.195312
234.648438	38654.812500
233.358398	38416.781250
232.068359	38269.914062
230.778320	38580.339844
229.487305	38235.914062
228.196289	37742.492188
226.905273	37820.472656
225.614258	38105.574219
224.322266	37922.148438
223.030273	37551.074219
221.738281	37634.828125
220.446289	37923.605469
219.153320	37581.750000
217.860352	37758.269531
216.567383	37300.570312
215.274414	37183.250000
213.980469	37274.703125
212.686523	36855.996094
211.392578	37156.117188
210.098633	36805.195312
208.803711	36954.574219
207.508789	36993.839844
206.213867	36996.410156
204.918945	36580.160156
203.623047	36959.089844
202.327148	36595.093750
201.031250	36242.808594
199.735352	36588.796875
198.438477	36063.105469
197.141602	36100.539062
195.844727	36290.226562
194.547852	36117.546875
193.250000	36312.933594
191.952148	35772.378906
190.654297	36127.609375
189.355469	35906.945312
188.057617	35919.320312
186.758789	35702.625000
185.458984	35982.535156
184.160156	35561.949219
182.860352	35801.378906
181.560547	35877.222656
180.260742	35808.808594
178.960938	35740.417969
177.660156	35599.007812
176.359375	35893.925781
175.058594	35706.417969
173.756836	35555.480469
172.455078	35734.984375
171.153320	35438.140625
169.851562	35371.824219
168.548828	35445.667969
167.247070	35454.222656
165.944336	35514.589844
164.640625	35321.671875
163.337891	35151.843750
162.034180	35041.535156
160.730469	35264.910156
159.426758	34679.167969
158.122070	34942.777344
156.817383	35001.230469
155.512695	34739.679688
154.208008	34516.542969
152.902344	34691.871094
151.596680	34576.058594
150.291016	34686.210938
148.985352	34396.250000
147.678711	34502.562500
146.372070	34178.300781
145.065430	34200.433594
143.758789	34517.117188
142.451172	34215.984375
141.143555	34719.917969
139.835938	34344.304688
138.528320	34117.910156
137.219727	34124.734375
135.911133	33724.609375
134.602539	33353.289062
133.292969	33429.003906
131.984375	33025.417969
130.674805	33028.617188
129.364258	32672.978516
128.054688	32010.236328
126.744141	31092.080078
125.433594	31078.472656
124.123047	30738.734375
122.811523	30025.380859
121.500000	29228.414062
120.188477	28628.082031
