#Wave		#Intensity
2199.120117	15693.160156
2198.186523	15481.488281
2197.252930	15304.687500
2196.320312	15502.931641
2195.386719	15427.950195
2194.453125	15655.556641
2193.518555	15374.438477
2192.584961	15436.024414
2191.650391	15476.178711
2190.716797	15438.723633
2189.782227	15369.178711
2188.847656	15454.792969
2187.912109	15462.822266
2186.977539	15291.701172
2186.041992	15567.092773
2185.107422	15468.180664
2184.171875	15665.944336
2183.236328	15428.104492
2182.299805	15585.732422
2181.364258	15374.697266
2180.427734	15420.113281
2179.492188	15350.697266
2178.555664	15679.087891
2177.619141	15468.179688
2176.681641	15529.558594
2175.745117	15492.188477
2174.807617	15518.859375
2173.871094	15500.173828
2172.933594	15502.830078
2171.996094	15548.148438
2171.057617	15641.438477
2170.120117	15692.047852
2169.181641	15238.937500
2168.244141	15550.729492
2167.305664	15651.945312
2166.367188	15558.674805
2165.427734	15428.150391
2164.489258	15670.459961
2163.550781	15827.491211
2162.611328	15417.491211
2161.671875	15707.580078
2160.732422	15805.980469
2159.792969	15569.126953
2158.852539	15468.014648
2157.913086	15348.320312
2156.972656	15372.257812
2156.032227	15444.041992
2155.091797	15542.382812
2154.151367	15667.265625
2153.209961	15683.157227
2152.269531	15552.918945
2151.328125	15385.536133
2150.386719	15701.581055
2149.445312	15587.337891
2148.503906	15749.250000
2147.561523	15643.000000
2146.620117	15433.279297
2145.677734	15759.654297
2144.735352	15613.659180
2143.792969	15793.992188
2142.850586	15796.564453
2141.908203	15637.377930
2140.964844	15528.621094
2140.021484	15875.843750
2139.078125	15592.157227
2138.134766	15711.355469
2137.191406	15753.676758
2136.248047	15703.268555
2135.303711	15390.671875
2134.359375	15676.649414
2133.415039	15909.574219
2132.470703	15814.169922
2131.526367	15552.054688
2130.582031	15676.382812
2129.636719	15747.750977
2128.691406	15784.705078
2127.746094	15779.327148
2126.800781	15668.173828
2125.855469	15739.492188
2124.910156	15932.385742
2123.963867	15720.826172
2123.017578	15636.183594
2122.071289	15773.508789
2121.125000	15778.701172
2120.178711	15609.572266
2119.232422	15767.955078
2118.285156	15992.289062
2117.337891	15849.607422
2116.390625	15788.794922
2115.443359	15838.838867
2114.496094	15902.056641
2113.548828	15762.124023
2112.600586	15885.996094
2111.652344	16083.663086
2110.704102	16054.509766
2109.755859	15854.013672
2108.807617	15898.708984
2107.859375	16175.292969
2106.910156	15822.058594
2105.960938	16330.381836
2105.011719	15850.815430
2104.062500	15808.566406
2103.113281	16069.125000
2102.163086	16024.218750
2101.213867	15971.430664
2100.263672	15918.661133
2099.313477	15789.605469
2098.363281	15894.726562
2097.413086	16257.575195
2096.461914	16123.266602
2095.511719	15944.304688
2094.560547	16175.509766
2093.609375	16091.223633
2092.658203	15870.311523
2091.706055	16012.072266
2090.754883	16085.479492
2089.802734	16300.697266
2088.850586	16087.777344
2087.898438	16213.645508
2086.946289	15985.062500
2085.994141	16032.160156
2085.041016	16084.489258
2084.088867	16244.377930
2083.135742	16068.414062
2082.182617	16299.069336
2081.229492	16306.730469
2080.275391	16083.648438
2079.322266	16204.072266
2078.368164	16389.982422
2077.414062	16311.136719
2076.459961	16258.521484
2075.505859	16116.850586
2074.551758	16315.740234
2073.596680	16490.990234
2072.642578	16370.299805
2071.687500	16249.649414
2070.732422	16354.145508
2069.777344	15935.195312
2068.821289	16031.858398
2067.866211	16125.872070
2066.910156	16143.997070
2065.954102	16311.182617
2064.998047	16551.523438
2064.041992	16245.387695
2063.084961	16268.705078
2062.128906	16542.900391
2061.171875	16521.736328
2060.214844	16197.528320
2059.257812	16411.513672
2058.300781	16429.554688
2057.343750	16256.976562
2056.385742	16293.312500
2055.427734	16376.619141
2054.469727	16211.966797
2053.511719	16443.988281
2052.553711	16318.513672
2051.594727	16406.972656
2050.636719	16414.552734
2049.677734	16286.539062
2048.718750	16249.816406
2047.759766	16439.880859
2046.800781	16580.361328
2045.840820	16301.274414
2044.881836	16189.019531
2043.921875	16342.492188
2042.961914	16378.715820
2042.001953	16386.283203
2041.041016	16396.451172
2040.081055	16599.236328
2039.120117	16533.888672
2038.159180	16452.951172
2037.198242	16343.421875
2036.237305	16483.644531
2035.276367	16509.384766
2034.314453	16267.288086
2033.353516	16303.456055
2032.391602	16425.388672
2031.429688	16552.476562
2030.467773	16469.044922
2029.504883	16624.658203
2028.542969	16406.167969
2027.580078	16463.046875
2026.617188	16615.980469
2025.654297	16407.990234
2024.691406	16257.176758
2023.727539	16500.900391
2022.764648	16622.580078
2021.800781	16484.779297
2020.836914	16471.533203
2019.873047	16494.601562
2018.909180	16512.474609
2017.944336	16608.117188
2016.980469	16511.908203
2016.015625	16319.840820
2015.050781	16638.312500
2014.085938	16441.107422
2013.121094	16425.292969
2012.155273	16627.031250
2011.190430	16227.954102
2010.224609	16636.775391
2009.258789	16540.691406
2008.292969	16561.101562
2007.326172	16475.414062
2006.360352	16715.738281
2005.393555	16738.693359
2004.426758	16784.916016
2003.459961	16686.316406
2002.493164	16722.189453
2001.526367	16540.916016
2000.558594	16525.111328
1999.591797	16759.962891
1998.624023	16573.607422
1997.656250	16583.634766
1996.687500	16632.398438
1995.719727	16745.699219
1994.750977	16559.474609
1993.783203	16726.955078
1992.814453	16788.562500
1991.845703	17087.544922
1990.875977	16609.851562
1989.907227	16583.740234
1988.937500	16660.798828
1987.968750	16753.302734
1986.999023	16569.910156
1986.029297	16819.636719
1985.058594	16602.791016
1984.088867	16806.041016
1983.118164	16630.492188
1982.147461	16501.371094
1981.176758	16768.917969
1980.206055	16451.839844
1979.235352	16760.494141
1978.263672	16739.552734
1977.292969	16628.537109
1976.321289	16836.640625
1975.349609	16771.957031
1974.376953	16720.156250
1973.405273	16868.980469
1972.433594	16691.177734
1971.460938	16873.376953
1970.488281	16837.015625
1969.515625	16633.609375
1968.542969	16725.783203
1967.569336	16869.308594
1966.596680	16943.425781
1965.623047	16940.468750
1964.649414	16655.046875
1963.675781	16631.601562
1962.701172	16823.785156
1961.727539	16589.863281
1960.752930	16787.119141
1959.779297	16861.156250
1958.804688	17050.597656
1957.829102	16945.033203
1956.854492	16808.732422
1955.879883	16967.316406
1954.904297	16933.591797
1953.928711	16656.402344
1952.953125	16807.242188
1951.977539	16781.248047
1951.000977	17070.335938
1950.025391	17051.986328
1949.048828	16600.888672
1948.072266	16912.896484
1947.095703	16820.349609
1946.119141	17037.513672
1945.141602	16811.912109
1944.165039	16982.949219
1943.187500	17072.068359
1942.209961	16964.226562
1941.232422	16943.361328
1940.254883	16953.183594
1939.276367	17042.244141
1938.297852	16788.798828
1937.320312	17102.724609
1936.341797	16652.632812
1935.362305	16953.697266
1934.383789	17106.525391
1933.405273	17006.500000
1932.425781	16939.699219
1931.446289	17092.447266
1930.466797	16890.388672
1929.487305	16905.296875
1928.506836	16675.275391
1927.527344	17118.757812
1926.546875	16990.792969
1925.566406	16850.123047
1924.585938	16933.859375
1923.605469	16951.289062
1922.624023	17006.943359
1921.642578	16761.890625
1920.662109	16825.199219
1919.680664	17020.943359
1918.698242	17066.355469
1917.716797	16933.501953
1916.735352	17037.468750
1915.752930	16830.847656
1914.770508	16802.451172
1913.788086	17109.953125
1912.805664	17068.794922
1911.822266	16857.222656
1910.839844	16859.359375
1909.856445	17146.289062
1908.873047	16922.101562
1907.889648	16776.789062
1906.906250	16850.097656
1905.921875	16722.634766
1904.938477	16846.738281
1903.954102	16823.466797
1902.969727	16960.205078
1901.985352	17185.769531
1901.000000	17167.525391
1900.015625	16859.914062
1899.030273	16778.285156
1898.044922	17036.707031
1897.059570	17008.351562
1896.074219	16957.177734
1895.088867	16906.019531
1894.102539	17065.343750
1893.116211	17237.287109
1892.129883	16963.041016
1891.143555	16666.080078
1890.157227	16726.507812
1889.169922	17166.937500
1888.183594	17138.599609
1887.196289	16894.998047
1886.208984	16978.130859
1885.221680	17167.564453
1884.233398	16769.677734
1883.246094	16738.898438
1882.257812	17014.306641
1881.269531	17264.318359
1880.281250	17198.054688
1879.292969	16863.732422
1878.304688	16931.576172
1877.315430	17120.748047
1876.326172	16976.193359
1875.336914	17041.453125
1874.347656	17243.138672
1873.358398	17050.634766
1872.368164	17040.066406
1871.378906	17069.910156
1870.388672	16877.535156
1869.398438	17079.068359
1868.408203	17018.017578
1867.416992	16871.177734
1866.426758	17037.279297
1865.435547	17115.021484
1864.444336	17106.972656
1863.453125	17341.037109
1862.461914	16846.296875
1861.469727	17050.068359
1860.478516	17082.365234
1859.486328	17230.578125
1858.494141	17386.298828
1857.501953	17060.775391
1856.509766	17153.498047
1855.516602	16923.828125
1854.523438	17177.691406
1853.530273	17187.263672
1852.537109	16894.779297
1851.543945	16791.146484
1850.550781	17278.861328
1849.556641	17054.439453
1848.562500	16940.769531
1847.569336	17325.087891
1846.574219	17201.351562
1845.580078	17072.628906
1844.585938	17217.931641
1843.590820	16953.542969
1842.595703	17362.644531
1841.600586	17462.595703
1840.605469	17075.222656
1839.610352	17230.439453
1838.614258	17106.886719
1837.618164	17211.832031
1836.622070	17023.064453
1835.625977	17308.677734
1834.629883	17245.416016
1833.633789	17480.712891
1832.636719	17123.974609
1831.639648	17389.302734
1830.642578	17215.744141
1829.645508	17393.216797
1828.648438	17096.898438
1827.650391	17116.447266
1826.652344	17040.775391
1825.655273	16930.056641
1824.657227	17573.304688
1823.658203	17505.103516
1822.660156	17143.972656
1821.661133	17268.630859
1820.663086	17165.474609
1819.664062	17497.796875
1818.664062	17124.408203
1817.665039	17218.960938
1816.666016	17423.535156
1815.666016	17405.464844
1814.666016	17514.919922
1813.666016	17149.351562
1812.666016	17103.843750
1811.665039	17293.259766
1810.665039	17147.796875
1809.664062	17357.123047
1808.663086	17306.611328
1807.662109	17248.626953
1806.661133	17322.992188
1805.659180	17467.230469
1804.658203	17304.416016
1803.656250	17466.074219
1802.654297	17315.791016
1801.652344	17347.666016
1800.649414	17424.427734
1799.647461	17209.390625
1798.644531	17236.281250
1797.641602	17392.789062
1796.638672	17215.257812
1795.634766	17122.513672
1794.631836	17176.804688
1793.627930	17094.064453
1792.625000	17437.257812
1791.621094	17329.597656
1790.616211	17231.931641
1789.612305	17308.556641
1788.607422	17215.906250
1787.603516	17183.011719
1786.598633	17319.316406
1785.593750	17229.197266
1784.587891	17238.597656
1783.583008	17193.287109
1782.577148	17312.085938
1781.571289	17433.328125
1780.565430	17221.480469
1779.559570	17124.015625
1778.553711	17453.927734
1777.546875	17339.066406
1776.541016	17234.179688
1775.534180	17367.720703
1774.527344	17272.794922
1773.519531	17441.033203
1772.512695	17333.716797
1771.504883	17161.919922
1770.497070	17131.603516
1769.489258	17371.681641
1768.481445	17207.408203
1767.473633	17149.820312
1766.464844	17412.080078
1765.457031	17379.263672
1764.448242	17368.761719
1763.439453	17350.832031
1762.429688	17223.892578
1761.420898	17097.000000
1760.411133	17155.900391
1759.401367	17405.449219
1758.391602	17204.316406
1757.381836	17273.066406
1756.372070	17180.919922
1755.361328	17185.312500
1754.350586	17335.671875
1753.339844	17297.982422
1752.329102	17220.734375
1751.318359	17277.041016
1750.307617	17273.990234
1749.295898	17582.396484
1748.284180	17211.050781
1747.272461	17264.845703
1746.260742	17439.677734
1745.249023	17209.347656
1744.236328	17337.203125
1743.223633	17314.386719
1742.210938	17316.267578
1741.198242	17283.589844
1740.185547	17310.152344
1739.171875	17398.394531
1738.159180	17459.464844
1737.145508	17362.650391
1736.131836	17186.949219
1735.118164	17134.597656
1734.103516	17210.460938
1733.089844	17293.693359
1732.075195	17364.572266
1731.060547	17447.744141
1730.045898	17149.031250
1729.030273	17195.263672
1728.015625	17138.046875
1727.000000	17511.746094
1725.984375	17452.029297
1724.968750	17382.488281
1723.953125	17428.634766
1722.937500	17526.437500
1721.920898	17402.792969
1720.904297	17416.935547
1719.887695	17534.359375
1718.871094	17226.367188
1717.854492	17456.867188
1716.836914	17306.304688
1715.820312	17423.662109
1714.802734	17504.121094
1713.785156	17476.460938
1712.766602	17554.423828
1711.749023	17330.300781
1710.730469	17400.896484
1709.711914	17454.281250
1708.693359	17348.107422
1707.674805	17457.923828
1706.656250	17499.000000
1705.636719	17446.839844
1704.618164	17492.808594
1703.598633	17555.925781
1702.579102	17540.560547
1701.558594	17466.365234
1700.539062	17419.156250
1699.518555	17506.744141
1698.498047	17412.992188
1697.477539	17405.011719
1696.457031	17514.595703
1695.436523	17313.142578
1694.415039	17505.949219
1693.393555	17613.007812
1692.372070	17269.685547
1691.350586	17577.406250
1690.329102	17645.248047
1689.306641	17443.980469
1688.285156	17489.806641
1687.262695	17721.464844
1686.240234	17669.427734
1685.216797	17448.740234
1684.194336	17580.072266
1683.170898	17537.861328
1682.148438	17437.027344
1681.125000	17812.564453
1680.100586	17670.197266
1679.077148	17762.300781
1678.052734	17861.695312
1677.029297	17441.115234
1676.004883	17650.357422
1674.980469	17622.828125
1673.955078	17680.699219
1672.930664	17514.132812
1671.905273	17754.916016
1670.879883	17824.921875
1669.854492	17629.162109
1668.829102	17757.666016
1667.803711	17774.015625
1666.777344	17541.814453
1665.750977	17699.498047
1664.724609	17557.517578
1663.698242	17308.429688
1662.671875	17770.441406
1661.644531	17540.876953
1660.618164	17859.070312
1659.590820	17739.085938
1658.563477	17456.117188
1657.535156	17808.212891
1656.507812	17625.058594
1655.479492	17989.156250
1654.451172	17737.951172
1653.422852	17698.337891
1652.394531	17855.621094
1651.366211	17961.814453
1650.336914	17735.085938
1649.307617	17853.408203
1648.278320	17988.689453
1647.249023	18002.498047
1646.219727	18043.007812
1645.189453	17920.851562
1644.160156	18136.121094
1643.129883	18123.195312
1642.099609	18001.087891
1641.068359	18012.447266
1640.038086	17984.996094
1639.006836	18040.003906
1637.975586	18131.363281
1636.944336	18057.841797
1635.913086	18163.705078
1634.881836	18240.451172
1633.849609	18200.867188
1632.817383	18347.830078
1631.786133	18240.423828
1630.752930	18404.275391
1629.720703	18183.099609
1628.688477	18673.705078
1627.655273	18411.414062
1626.622070	18437.181641
1625.588867	18697.628906
1624.555664	18568.517578
1623.521484	18591.822266
1622.487305	18559.501953
1621.454102	18694.015625
1620.419922	18724.537109
1619.384766	18709.125000
1618.350586	18744.462891
1617.315430	18782.205078
1616.281250	19080.816406
1615.246094	18893.873047
1614.209961	18600.746094
1613.174805	19007.871094
1612.139648	18944.146484
1611.103516	19114.546875
1610.067383	18655.087891
1609.031250	19032.960938
1607.995117	18995.806641
1606.958008	19081.662109
1605.920898	18892.599609
1604.884766	18990.496094
1603.847656	18999.171875
1602.809570	18993.382812
1601.772461	19149.037109
1600.734375	18993.853516
1599.696289	19000.111328
1598.659180	18970.238281
1597.620117	19431.585938
1596.582031	18946.638672
1595.542969	18986.593750
1594.504883	18906.205078
1593.465820	18936.527344
1592.426758	19120.804688
1591.386719	18840.791016
1590.347656	19169.312500
1589.307617	19177.921875
1588.267578	18893.238281
1587.227539	18990.826172
1586.187500	19134.039062
1585.146484	19034.523438
1584.106445	19038.341797
1583.065430	18931.671875
1582.024414	19089.199219
1580.983398	18972.951172
1579.941406	18676.699219
1578.900391	18814.984375
1577.858398	18823.632812
1576.816406	18909.054688
1575.774414	18879.300781
1574.732422	18950.289062
1573.689453	18870.177734
1572.646484	18749.332031
1571.603516	18875.441406
1570.560547	18958.361328
1569.517578	18727.332031
1568.473633	18707.224609
1567.430664	19017.699219
1566.386719	18712.533203
1565.342773	18531.998047
1564.298828	18519.119141
1563.253906	18664.232422
1562.208984	18476.617188
1561.165039	18296.248047
1560.120117	18678.177734
1559.074219	18435.642578
1558.029297	18315.166016
1556.983398	18467.330078
1555.938477	18227.349609
1554.892578	18271.906250
1553.846680	18292.548828
1552.799805	18351.414062
1551.753906	18235.855469
1550.707031	18180.052734
1549.660156	18367.869141
1548.613281	18056.566406
1547.566406	18124.966797
1546.518555	18112.185547
1545.470703	18166.232422
1544.423828	17819.392578
1543.375000	18050.009766
1542.327148	17972.847656
1541.279297	18303.515625
1540.230469	17871.058594
1539.181641	18304.136719
1538.132812	18086.351562
1537.083984	17902.005859
1536.035156	17913.107422
1534.985352	18157.666016
1533.935547	18056.769531
1532.885742	18124.990234
1531.835938	17783.652344
1530.786133	17847.134766
1529.735352	17972.474609
1528.684570	17743.193359
1527.633789	18006.505859
1526.583008	17960.472656
1525.532227	17985.806641
1524.480469	17858.937500
1523.429688	18086.375000
1522.377930	18073.636719
1521.326172	17896.906250
1520.273438	18014.900391
1519.221680	17769.341797
1518.168945	17951.455078
1517.116211	17689.367188
1516.063477	17861.929688
1515.010742	17946.583984
1513.958008	17767.716797
1512.904297	17546.195312
1511.850586	17604.755859
1510.796875	17715.490234
1509.743164	17674.371094
1508.688477	17656.980469
1507.634766	18042.707031
1506.580078	17833.222656
1505.525391	17901.146484
1504.470703	18061.472656
1503.415039	17842.617188
1502.360352	17886.808594
1501.304688	17777.019531
1500.249023	17818.837891
1499.193359	17997.976562
1498.137695	17665.687500
1497.081055	17823.484375
1496.024414	17533.941406
1494.967773	17788.714844
1493.911133	17816.287109
1492.854492	17765.794922
1491.796875	17677.480469
1490.740234	17622.300781
1489.682617	17590.779297
1488.625000	17431.634766
1487.567383	17541.949219
1486.508789	17805.802734
1485.450195	17764.818359
1484.392578	17804.154297
1483.333008	17642.748047
1482.274414	17842.642578
1481.215820	17742.662109
1480.156250	17796.132812
1479.096680	17729.232422
1478.037109	17794.480469
1476.977539	17817.244141
1475.917969	17436.687500
1474.857422	17825.013672
1473.796875	17838.326172
1472.736328	17535.757812
1471.675781	17857.863281
1470.615234	17564.824219
1469.553711	17780.787109
1468.492188	17511.421875
1467.430664	17741.447266
1466.369141	17620.533203
1465.307617	17506.722656
1464.245117	17336.460938
1463.182617	17519.279297
1462.120117	17483.197266
1461.057617	17494.181641
1459.995117	17566.318359
1458.931641	17591.390625
1457.869141	17762.240234
1456.805664	17740.250000
1455.742188	17436.203125
1454.677734	17491.830078
1453.614258	17460.500000
1452.549805	17657.056641
1451.485352	17606.914062
1450.420898	17646.029297
1449.356445	17701.566406
1448.291016	17397.902344
1447.226562	17589.597656
1446.161133	17318.916016
1445.095703	17613.792969
1444.030273	17559.023438
1442.963867	17595.748047
1441.897461	17318.220703
1440.832031	17514.408203
1439.764648	17569.873047
1438.698242	17695.630859
1437.631836	17481.552734
1436.564453	17354.240234
1435.497070	17608.804688
1434.429688	17568.171875
1433.362305	17480.718750
1432.294922	17594.644531
1431.226562	17699.167969
1430.158203	17843.437500
1429.089844	17695.154297
1428.021484	17441.642578
1426.953125	17487.634766
1425.883789	17613.126953
1424.814453	17373.794922
1423.745117	17592.777344
1422.675781	17846.742188
1421.606445	17607.494141
1420.536133	17669.759766
1419.465820	17524.076172
1418.395508	17581.662109
1417.325195	17513.113281
1416.254883	17717.781250
1415.183594	17632.888672
1414.112305	17727.755859
1413.041016	17439.857422
1411.969727	17845.052734
1410.898438	17767.195312
1409.826172	17789.660156
1408.754883	17604.564453
1407.682617	17752.957031
1406.609375	17642.533203
1405.537109	17926.048828
1404.464844	17897.193359
1403.391602	17593.414062
1402.318359	17692.751953
1401.245117	17610.382812
1400.170898	17632.832031
1399.097656	17734.435547
1398.023438	17440.265625
1396.949219	17714.095703
1395.875000	17692.294922
1394.800781	17791.484375
1393.725586	17772.001953
1392.651367	17943.238281
1391.576172	17865.601562
1390.500977	17597.347656
1389.424805	17947.507812
1388.349609	17769.972656
1387.273438	17964.289062
1386.197266	17598.630859
1385.121094	17758.062500
1384.044922	17850.087891
1382.967773	17728.455078
1381.891602	17681.154297
1380.814453	17810.279297
1379.737305	17516.982422
1378.659180	18140.318359
1377.582031	17867.945312
1376.503906	17688.447266
1375.425781	17548.439453
1374.347656	18182.912109
1373.269531	17906.085938
1372.190430	17689.623047
1371.112305	17793.039062
1370.033203	17870.931641
1368.954102	17631.423828
1367.874023	17730.160156
1366.794922	17949.279297
1365.714844	17985.408203
1364.634766	17734.474609
1363.554688	17870.150391
1362.474609	17741.970703
1361.394531	17572.193359
1360.313477	17851.242188
1359.232422	17894.283203
1358.151367	17666.757812
1357.070312	17742.181641
1355.988281	17984.013672
1354.907227	17714.990234
1353.825195	17986.775391
1352.743164	17810.261719
1351.660156	18033.421875
1350.578125	17697.605469
1349.495117	17925.324219
1348.412109	17834.365234
1347.329102	17718.046875
1346.246094	17634.080078
1345.162109	17981.626953
1344.079102	17812.281250
1342.995117	17716.806641
1341.911133	17729.755859
1340.827148	17844.152344
1339.742188	17889.347656
1338.657227	17648.714844
1337.573242	17604.052734
1336.488281	17688.433594
1335.402344	17517.074219
1334.317383	17661.324219
1333.231445	17612.082031
1332.145508	17611.207031
1331.059570	17552.781250
1329.973633	17676.203125
1328.886719	17585.570312
1327.800781	17340.816406
1326.713867	17234.173828
1325.626953	17297.761719
1324.539062	17411.914062
1323.452148	17551.316406
1322.364258	17348.164062
1321.276367	17368.015625
1320.188477	17452.199219
1319.100586	17485.808594
1318.012695	17434.414062
1316.923828	17346.292969
1315.834961	17159.464844
1314.746094	17369.875000
1313.657227	17362.148438
1312.567383	17590.802734
1311.477539	17466.015625
1310.388672	17185.273438
1309.297852	17418.421875
1308.208008	17316.664062
1307.118164	17501.552734
1306.027344	16801.482422
1304.936523	17119.333984
1303.845703	17026.867188
1302.754883	17225.419922
1301.663086	17297.904297
1300.571289	17113.837891
1299.480469	17181.734375
1298.387695	17038.966797
1297.295898	17136.609375
1296.204102	16778.757812
1295.111328	17151.011719
1294.018555	17189.093750
1292.925781	17169.974609
1291.832031	16821.521484
1290.739258	16912.234375
1289.645508	16980.050781
1288.551758	16979.267578
1287.458008	17001.335938
1286.364258	16950.277344
1285.269531	17097.996094
1284.174805	17083.482422
1283.081055	16989.042969
1281.985352	16947.152344
1280.890625	16916.691406
1279.794922	16920.480469
1278.700195	17029.244141
1277.604492	17042.134766
1276.508789	17036.771484
1275.412109	16874.027344
1274.316406	16884.656250
1273.219727	16776.718750
1272.123047	17008.486328
1271.026367	16586.029297
1269.928711	16794.958984
1268.832031	16775.970703
1267.734375	16608.917969
1266.636719	16624.132812
1265.539062	16682.607422
1264.440430	16629.498047
1263.342773	16649.251953
1262.244141	16448.230469
1261.145508	16620.468750
1260.046875	16478.675781
1258.947266	16632.646484
1257.848633	16354.446289
1256.749023	16497.011719
1255.649414	16571.322266
1254.549805	16604.691406
1253.449219	16476.687500
1252.348633	16316.918945
1251.249023	16420.738281
1250.148438	16315.550781
1249.046875	16330.762695
1247.946289	16257.416016
1246.844727	16272.631836
1245.743164	16498.929688
1244.641602	16586.712891
1243.540039	16254.710938
1242.438477	16285.792969
1241.335938	16434.806641
1240.233398	16180.111328
1239.130859	16208.920898
1238.028320	16271.721680
1236.924805	16323.167969
1235.821289	16379.125977
1234.717773	16092.950195
1233.614258	16377.717773
1232.510742	16014.639648
1231.406250	16432.917969
1230.302734	16275.985352
1229.198242	16352.259766
1228.093750	16360.610352
1226.988281	16366.694336
1225.883789	16284.541992
1224.778320	16243.134766
1223.672852	16312.557617
1222.567383	16264.375977
1221.460938	16544.015625
1220.355469	16278.817383
1219.249023	16257.784180
1218.142578	16044.701172
1217.036133	16086.970703
1215.928711	15914.650391
1214.822266	16144.364258
1213.714844	16249.810547
1212.607422	16133.989258
1211.500000	16090.433594
1210.391602	16247.733398
1209.284180	16086.847656
1208.175781	16239.578125
1207.067383	16096.794922
1205.958984	16078.086914
1204.849609	16048.112305
1203.740234	16110.569336
1202.631836	16049.045898
1201.521484	16208.372070
1200.412109	16002.663086
1199.302734	16065.080078
1198.192383	16001.354492
1197.082031	16063.747070
1195.971680	16076.587891
1194.861328	15997.136719
1193.750000	15766.930664
1192.638672	16171.331055
1191.527344	16067.157227
1190.416016	15974.266602
1189.304688	15935.381836
1188.192383	15941.479492
1187.081055	15997.031250
1185.968750	16050.313477
1184.855469	16020.429688
1183.743164	16053.465820
1182.629883	15915.763672
1181.517578	15955.543945
1180.404297	15975.098633
1179.290039	15803.805664
1178.176758	15946.841797
1177.062500	15919.253906
1175.948242	15900.651367
1174.833984	15920.194336
1173.719727	16000.294922
1172.605469	15891.976562
1171.490234	15880.116211
1170.375000	15928.791016
1169.259766	15887.788086
1168.144531	15851.281250
1167.028320	15944.746094
1165.912109	15964.248047
1164.796875	15847.109375
1163.679688	15727.773438
1162.563477	15769.692383
1161.447266	15876.515625
1160.330078	15739.331055
1159.212891	15776.748047
1158.095703	15653.054688
1156.977539	15878.380859
1155.860352	15671.958984
1154.742188	15801.041016
1153.624023	15650.601562
1152.505859	15645.516602
1151.386719	15861.696289
1150.268555	15525.855469
1149.149414	15464.939453
1148.030273	15596.148438
1146.910156	15376.671875
1145.791016	15280.086914
1144.670898	15482.698242
1143.550781	15535.680664
1142.430664	15548.472656
1141.310547	15701.832031
1140.190430	15533.883789
1139.069336	15522.130859
1137.948242	15331.973633
1136.827148	15409.448242
1135.705078	15453.455078
1134.583984	15370.399414
1133.461914	15385.424805
1132.339844	15344.743164
1131.217773	15214.968750
1130.095703	15457.194336
1128.972656	15327.445312
1127.849609	15335.783203
1126.726562	15424.254883
1125.603516	15459.278320
1124.479492	15262.863281
1123.356445	15215.583984
1122.232422	15301.785156
1121.108398	15265.634766
1119.984375	15467.421875
1118.859375	15397.904297
1117.734375	15119.468750
1116.609375	15163.380859
1115.484375	15307.265625
1114.359375	15355.569336
1113.233398	15277.247070
1112.108398	15190.070312
1110.982422	15178.416992
1109.856445	15359.903320
1108.729492	15239.463867
1107.603516	15212.271484
1106.476562	15284.931641
1105.349609	15313.198242
1104.222656	15337.018555
1103.094727	15383.003906
1101.966797	15287.076172
1100.839844	14998.328125
1099.711914	14955.696289
1098.583008	15289.783203
1097.455078	15260.405273
1096.326172	15406.030273
1095.197266	15148.526367
1094.068359	15198.902344
1092.939453	15162.917969
1091.809570	15255.328125
1090.679688	15391.964844
1089.549805	15207.713867
1088.419922	15342.095703
1087.290039	15222.063477
1086.159180	15440.428711
1085.028320	15229.767578
1083.897461	15295.514648
1082.766602	15160.104492
1081.635742	15115.346680
1080.503906	15262.826172
1079.372070	15240.154297
1078.240234	15268.289062
1077.108398	15066.757812
1075.975586	14962.443359
1074.843750	15118.641602
1073.710938	15131.326172
1072.577148	15097.666992
1071.444336	14929.440430
1070.311523	15264.199219
1069.177734	15100.412109
1068.043945	15252.000977
1066.910156	15231.574219
1065.775391	15098.740234
1064.640625	15089.367188
1063.506836	15159.318359
1062.372070	15136.717773
1061.236328	15457.728516
1060.101562	15095.944336
1058.965820	15289.140625
1057.830078	15174.072266
1056.694336	15114.070312
1055.558594	15324.758789
1054.421875	15097.537109
1053.285156	15184.963867
1052.148438	15245.965820
1051.011719	15218.986328
1049.875000	14846.842773
1048.737305	15226.603516
1047.599609	15384.250977
1046.461914	15095.779297
1045.324219	15040.288086
1044.186523	14982.620117
1043.047852	15045.760742
1041.909180	15280.144531
1040.770508	15033.663086
1039.631836	15015.544922
1038.492188	14925.013672
1037.352539	15060.509766
1036.212891	15095.043945
1035.073242	15044.024414
1033.933594	15071.968750
1032.792969	15156.908203
1031.652344	14853.810547
1030.511719	15208.337891
1029.371094	15198.976562
1028.230469	15167.708984
1027.088867	14985.306641
1025.947266	14943.137695
1024.805664	15069.591797
1023.664062	15174.105469
1022.521484	14943.676758
1021.378906	15017.534180
1020.236328	15139.502930
1019.093750	14933.270508
1017.951172	15007.087891
1016.807617	15019.643555
1015.664062	15036.567383
1014.520508	15070.973633
1013.376953	15002.637695
1012.233398	14886.250000
1011.088867	14789.568359
1009.944336	14950.692383
1008.799805	14971.974609
1007.655273	14840.389648
1006.509766	15053.812500
1005.364258	15005.209961
1004.218750	15052.653320
1003.073242	14866.594727
1001.927734	14896.591797
1000.781250	14954.933594
999.634766	14915.113281
998.488281	15219.824219
997.341797	15014.282227
996.195312	14793.556641
995.047852	15024.024414
993.900391	14801.198242
992.752930	14994.543945
991.605469	14880.708008
990.457031	14507.767578
989.308594	14949.270508
988.160156	14957.409180
987.011719	15063.486328
985.863281	14923.625000
984.713867	15107.993164
983.564453	14948.596680
982.415039	14991.523438
981.265625	15236.660156
980.115234	14842.524414
978.965820	14822.407227
977.815430	15032.666016
976.664062	14884.319336
975.513672	14688.231445
974.362305	15028.722656
973.211914	14926.062500
972.060547	15023.198242
970.908203	14959.651367
969.756836	14870.081055
968.604492	14997.552734
967.452148	14847.255859
966.299805	14896.588867
965.147461	14961.085938
963.994141	15027.726562
962.841797	14912.220703
961.688477	14902.974609
960.535156	15073.618164
959.380859	15055.676758
958.226562	15026.909180
957.073242	15184.437500
955.918945	14757.164062
954.763672	14988.302734
953.609375	15054.821289
952.454102	15095.341797
951.298828	15034.132812
950.143555	15016.219727
948.988281	15045.905273
947.832031	14911.198242
946.675781	14988.466797
945.519531	14938.140625
944.363281	14851.083008
943.207031	14887.252930
942.049805	14899.638672
940.892578	14829.917969
939.735352	14924.393555
938.578125	15033.952148
937.419922	14880.029297
936.261719	14756.387695
935.103516	14727.767578
933.945312	14841.594727
932.787109	14853.964844
931.627930	14833.969727
930.468750	14908.887695
929.309570	15022.594727
928.150391	14797.742188
926.990234	14952.385742
925.831055	14938.853516
924.670898	14903.776367
923.509766	14676.954102
922.349609	14734.565430
921.188477	14544.470703
920.028320	14862.644531
918.867188	14791.008789
917.705078	14857.165039
916.543945	14893.165039
915.381836	14823.713867
914.219727	14640.262695
913.057617	14622.505859
911.895508	14662.821289
910.732422	14814.932617
909.569336	14906.791992
908.406250	14944.880859
907.243164	14722.924805
906.080078	14834.085938
904.916016	14700.307617
903.751953	14867.273438
902.587891	14568.184570
901.423828	14859.640625
900.258789	14807.526367
899.093750	14877.765625
897.928711	14840.686523
896.763672	14780.020508
895.598633	14665.750000
894.432617	15025.490234
893.266602	14651.758789
892.100586	14972.778320
890.934570	14672.071289
889.767578	14669.362305
888.600586	14638.798828
887.433594	14526.839844
886.266602	14871.143555
885.099609	14748.473633
883.931641	14807.840820
882.763672	14882.171875
881.595703	14851.598633
880.427734	14679.802734
879.258789	14852.531250
878.089844	14680.796875
876.920898	14802.129883
875.751953	14895.620117
874.583008	14766.729492
873.413086	14590.860352
872.243164	14671.512695
871.073242	14782.048828
869.903320	14794.271484
868.732422	14695.418945
867.562500	14765.311523
866.391602	14818.096680
865.220703	14582.666992
864.048828	14533.013672
862.876953	14705.314453
861.706055	14762.335938
860.534180	14783.071289
859.361328	14910.438477
858.189453	14960.991211
857.016602	14819.643555
855.843750	14759.348633
854.670898	14741.700195
853.497070	14623.908203
852.324219	14840.637695
851.150391	14912.444336
849.976562	14771.257812
848.802734	14728.068359
847.627930	14693.410156
846.453125	14694.948242
845.278320	14939.085938
844.103516	14859.724609
842.928711	14710.191406
841.752930	14771.275391
840.577148	14896.130859
839.401367	14714.780273
838.225586	14977.770508
837.048828	14913.363281
835.873047	15021.097656
834.696289	14805.863281
833.518555	14709.659180
832.341797	14823.741211
831.164062	15039.701172
829.987305	15009.317383
828.808594	14987.434570
827.630859	14884.916016
826.453125	14920.350586
825.274414	14656.656250
824.095703	14927.548828
822.916992	14960.833008
821.737305	14799.045898
820.558594	14936.210938
819.378906	15030.936523
818.199219	14860.748047
817.018555	14716.044922
815.838867	15024.699219
814.658203	14968.967773
813.477539	15031.833984
812.296875	14954.950195
811.115234	14941.593750
809.934570	14998.080078
808.752930	14798.521484
807.571289	15020.019531
806.388672	14848.026367
805.207031	15134.988281
804.024414	14992.635742
802.841797	14970.830078
801.659180	15018.777344
800.475586	15248.437500
799.291992	14867.426758
798.109375	14672.443359
796.924805	14988.627930
795.741211	15114.653320
794.556641	15031.624023
793.373047	15060.496094
792.188477	14947.959961
791.002930	14917.755859
789.818359	14927.644531
788.632812	15083.066406
787.447266	14871.491211
786.261719	14807.585938
785.076172	14986.128906
783.889648	15080.299805
782.703125	14986.886719
781.516602	14963.035156
780.330078	15036.089844
779.142578	15016.449219
777.956055	14929.431641
776.768555	15017.187500
775.580078	14858.633789
774.392578	15003.191406
773.204102	14960.425781
772.015625	14896.637695
770.827148	15015.864258
769.638672	15040.413086
768.449219	15069.157227
767.260742	14889.773438
766.071289	14880.701172
764.880859	14913.659180
763.691406	15030.644531
762.500977	15023.650391
761.310547	14999.855469
760.120117	14887.875000
758.929688	15021.571289
757.738281	14939.014648
756.546875	15217.458984
755.355469	14967.032227
754.164062	14932.780273
752.972656	14885.956055
751.780273	15139.035156
750.587891	14970.578125
749.395508	14959.408203
748.202148	14835.061523
747.009766	15016.709961
745.816406	15053.724609
744.623047	15063.492188
743.428711	15022.991211
742.235352	14995.067383
741.041016	15042.523438
739.846680	15006.233398
738.652344	15034.833008
737.457031	14981.816406
736.262695	14811.664062
735.067383	14873.748047
733.872070	14965.085938
732.675781	15073.116211
731.480469	15015.958008
730.284180	14670.385742
729.087891	14864.086914
727.891602	15047.268555
726.694336	14887.796875
725.497070	14933.060547
724.299805	14875.987305
723.102539	14869.041016
721.905273	14837.047852
720.707031	14957.416016
719.508789	14812.741211
718.310547	15131.257812
717.112305	15065.863281
715.913086	14835.744141
714.713867	15053.994141
713.514648	15295.093750
712.315430	15012.951172
711.116211	15135.186523
709.916016	14903.181641
708.715820	14927.483398
707.515625	14933.032227
706.314453	14849.037109
705.114258	14900.399414
703.913086	14908.029297
702.711914	15046.767578
701.510742	15046.042969
700.308594	15163.899414
699.106445	15013.391602
697.904297	15093.775391
696.702148	15192.841797
695.500000	14996.676758
694.296875	14900.349609
693.093750	14993.160156
691.890625	15004.907227
690.686523	15002.107422
689.483398	15167.536133
688.279297	14959.131836
687.075195	14935.579102
685.871094	15098.850586
684.666016	14905.100586
683.460938	14840.070312
682.255859	15202.423828
681.050781	15122.841797
679.845703	15130.387695
678.639648	15009.377930
677.433594	15327.893555
676.227539	15264.925781
675.020508	14860.059570
673.814453	15277.871094
672.607422	14744.721680
671.400391	14959.431641
670.193359	15122.293945
668.985352	15227.125000
667.777344	15379.524414
666.569336	14960.674805
665.361328	15133.756836
664.153320	15226.092773
662.944336	15277.025391
661.735352	15108.731445
660.526367	14940.500000
659.317383	15171.303711
658.107422	14957.651367
656.897461	15299.951172
655.687500	14962.390625
654.477539	15131.043945
653.266602	14993.971680
652.055664	15067.569336
650.844727	15081.268555
649.633789	14874.100586
648.422852	15052.927734
647.210938	15250.258789
645.999023	15123.627930
644.787109	15038.295898
643.575195	14899.377930
642.362305	14993.496094
641.149414	14990.691406
639.936523	15109.488281
638.723633	15257.089844
637.509766	15089.413086
636.295898	15140.147461
635.082031	15304.133789
633.868164	15124.185547
632.654297	15041.064453
631.439453	15130.875000
630.224609	15062.188477
629.009766	15077.886719
627.793945	15070.950195
626.579102	14924.152344
625.363281	14968.656250
624.147461	15058.375000
622.930664	14989.774414
621.714844	14871.873047
620.498047	14846.484375
619.281250	15293.637695
618.064453	14816.274414
616.846680	15055.837891
615.628906	14872.324219
614.411133	14959.868164
613.193359	15065.851562
611.975586	14874.227539
610.756836	14990.445312
609.538086	15164.058594
608.319336	15132.501953
607.099609	14879.487305
605.880859	15217.041992
604.661133	14933.357422
603.441406	15112.962891
602.221680	14913.415039
601.000977	15162.612305
599.780273	15067.594727
598.559570	14976.708008
597.338867	15053.754883
596.117188	14919.912109
594.896484	14951.910156
593.674805	15153.748047
592.453125	14970.854492
591.230469	15013.050781
590.007812	14895.700195
588.786133	15103.529297
587.562500	15096.606445
586.339844	14977.259766
585.116211	15193.128906
583.893555	15004.333008
582.669922	15009.689453
581.445312	15055.895508
580.221680	15118.419922
578.997070	15033.910156
577.772461	15323.013672
576.547852	15105.827148
575.322266	15127.479492
574.096680	15057.309570
572.871094	15174.836914
571.645508	15016.984375
570.419922	15250.705078
569.193359	15388.514648
567.966797	15151.212891
566.740234	15215.621094
565.513672	15308.530273
564.286133	15128.416992
563.058594	15180.569336
561.831055	15228.628906
560.603516	15101.568359
559.375000	15135.373047
558.146484	15205.800781
556.917969	15109.336914
555.689453	15100.393555
554.460938	15280.630859
553.231445	15263.522461
552.001953	15097.981445
550.772461	15060.583008
549.541992	15334.190430
548.312500	15166.695312
547.082031	14985.039062
545.851562	15120.363281
544.620117	15127.675781
543.388672	15189.814453
542.158203	15229.594727
540.926758	14970.956055
539.694336	15167.039062
538.462891	15137.806641
537.230469	15291.177734
535.998047	15040.833008
534.764648	14946.741211
533.532227	14773.604492
532.298828	14888.408203
531.065430	14924.118164
529.832031	15136.121094
528.597656	14845.560547
527.364258	14915.694336
526.129883	14876.429688
524.894531	14784.530273
523.660156	15071.267578
522.424805	14934.831055
521.189453	14666.893555
519.954102	14959.560547
518.718750	14983.043945
517.482422	14951.904297
516.246094	14941.000000
515.009766	14922.010742
513.773438	14803.970703
512.536133	15065.958984
511.299805	14755.958008
510.062500	14914.812500
508.824219	14851.401367
507.586914	15076.826172
506.348633	14767.053711
505.110352	14899.538086
503.872070	14692.859375
502.632812	14795.034180
501.393555	14739.784180
500.154297	14934.709961
498.915039	14829.028320
497.675781	14767.750977
496.435547	14801.259766
495.195312	14925.468750
493.955078	14801.725586
492.714844	14946.038086
491.473633	14854.572266
490.232422	14835.656250
488.991211	14639.517578
487.750000	14709.246094
486.507812	14789.013672
485.265625	14947.250000
484.023438	14863.932617
482.781250	14917.466797
481.538086	14999.143555
480.294922	14970.166992
479.051758	15106.096680
477.808594	15115.309570
476.565430	14915.459961
475.321289	14950.832031
474.077148	15002.264648
472.833008	14997.423828
471.587891	15028.740234
470.342773	14967.663086
469.097656	15013.027344
467.852539	14919.854492
466.607422	14933.094727
465.361328	14835.958008
464.115234	14883.316406
462.869141	15121.225586
461.623047	15058.201172
460.375977	14995.200195
459.128906	14946.255859
457.881836	14865.257812
456.633789	14896.519531
455.386719	14867.657227
454.138672	14864.848633
452.890625	14904.102539
451.642578	14905.291016
450.393555	14790.350586
449.144531	14815.582031
447.895508	14776.755859
446.646484	14745.947266
445.396484	14951.233398
444.146484	14822.386719
442.896484	14893.583008
441.646484	14728.802734
440.396484	14718.021484
439.145508	14627.291016
437.894531	14786.397461
436.643555	14801.583984
435.391602	14644.963867
434.139648	14845.918945
432.887695	14713.311523
431.635742	14910.182617
430.383789	14701.756836
429.130859	14641.097656
427.877930	14626.355469
426.625000	14761.246094
425.371094	14580.928711
424.118164	14604.094727
422.864258	14567.435547
421.610352	14682.295898
420.355469	14719.379883
419.101562	14790.327148
417.846680	14588.288086
416.591797	14882.336914
415.335938	14732.137695
414.081055	14637.750977
412.825195	14909.721680
411.569336	14624.246094
410.312500	14732.924805
409.056641	14451.569336
407.799805	14629.865234
406.542969	14692.731445
405.285156	14608.415039
404.028320	14655.353516
402.770508	14696.310547
401.512695	14637.876953
400.254883	14591.386719
398.996094	14767.428711
397.737305	14740.793945
396.478516	14553.304688
395.219727	14528.704102
393.960938	14567.640625
392.701172	14443.803711
391.441406	14534.335938
390.181641	14747.848633
388.920898	14786.710938
387.660156	14668.873047
386.399414	14703.768555
385.138672	14617.711914
383.877930	14595.117188
382.616211	14727.115234
381.354492	14569.767578
380.092773	14640.304688
378.830078	14490.954102
377.568359	14636.731445
376.305664	14471.597656
375.041992	14625.240234
373.779297	14458.190430
372.515625	14502.939453
371.251953	14603.067383
369.988281	14307.539062
368.724609	14498.639648
367.459961	14592.777344
366.195312	14562.330078
364.930664	14140.529297
363.666016	14574.588867
362.400391	14486.860352
361.134766	14367.557617
359.869141	14337.178711
358.602539	14508.231445
357.336914	14458.091797
356.070312	14352.700195
354.803711	14340.106445
353.536133	14509.052734
352.269531	14336.632812
351.001953	14223.451172
349.734375	14386.405273
348.465820	14180.584961
347.198242	14266.601562
345.929688	14356.526367
344.661133	14440.503906
343.392578	14321.516602
342.123047	14371.981445
340.853516	14130.944336
339.583984	14350.765625
338.314453	14170.853516
337.043945	14105.171875
335.773438	14252.056641
334.502930	14192.287109
333.232422	14232.867188
331.960938	14194.757812
330.690430	14119.298828
329.417969	14266.037109
328.146484	14214.181641
326.875000	14097.487305
325.602539	14128.209961
324.330078	14084.266602
323.056641	14301.581055
321.784180	14000.353516
320.510742	14123.352539
319.237305	14038.214844
317.963867	14198.451172
316.689453	14286.017578
315.415039	14175.389648
314.140625	14105.997070
312.866211	14238.637695
311.590820	13992.779297
310.316406	14058.733398
309.041016	14140.341797
307.764648	14127.851562
306.489258	14036.989258
305.212891	14087.209961
303.936523	13957.215820
302.660156	13987.848633
301.382812	13883.374023
300.105469	14150.867188
298.828125	13960.286133
297.550781	13977.194336
296.273438	13904.101562
294.995117	13893.627930
293.716797	13783.420898
292.437500	13923.529297
291.159180	13823.130859
289.879883	14062.858398
288.600586	13954.654297
287.321289	13871.889648
286.041016	13828.223633
284.761719	13722.076172
283.481445	13971.354492
282.200195	13601.659180
280.919922	13622.489258
279.638672	13684.292969
278.357422	13808.510742
277.076172	13524.960938
275.793945	13656.961914
274.511719	13886.415039
273.229492	13447.035156
271.947266	13424.976562
270.665039	13545.199219
269.381836	13591.330078
268.098633	13623.804688
266.814453	13541.343750
265.531250	13643.922852
264.247070	13633.531250
262.962891	13572.528320
261.678711	13601.079102
260.393555	13372.750000
259.108398	13568.649414
257.823242	13488.250000
256.538086	13468.170898
255.252930	13593.936523
253.966797	13731.317383
252.680664	13536.264648
251.393555	13549.226562
250.107422	13540.810547
248.820312	13369.214844
247.533203	13397.738281
246.246094	13488.389648
244.958008	13243.123047
243.669922	13281.357422
242.381836	13463.194336
241.093750	13284.044922
239.804688	13308.666992
238.516602	13408.925781
237.227539	13322.973633
235.937500	13355.329102
234.648438	13424.502930
233.358398	13276.573242
232.068359	13388.366211
230.778320	13211.436523
229.487305	13361.940430
228.196289	13161.841797
226.905273	13052.827148
225.614258	13158.745117
224.322266	13253.007812
223.030273	13140.166016
221.738281	13145.392578
220.446289	13077.105469
219.153320	13018.514648
217.860352	12905.801758
216.567383	13102.469727
215.274414	13074.833984
213.980469	13027.881836
212.686523	12986.744141
211.392578	13051.875000
210.098633	12937.348633
208.803711	12942.597656
207.508789	12801.104492
206.213867	12924.130859
204.918945	12962.187500
203.623047	12774.458008
202.327148	12820.244141
201.031250	12860.226562
199.735352	12699.622070
198.438477	12870.727539
197.141602	12656.202148
195.844727	12713.529297
194.547852	12778.542969
193.250000	12556.448242
191.952148	12581.012695
190.654297	12667.197266
189.355469	12518.423828
188.057617	12718.176758
186.758789	12646.444336
185.458984	12603.606445
184.160156	12337.583984
182.860352	12477.578125
181.560547	12398.250977
180.260742	12470.873047
178.960938	12441.565430
177.660156	12541.061523
176.359375	12423.341797
175.058594	12499.744141
173.756836	12447.396484
172.455078	12667.825195
171.153320	12475.270508
169.851562	12513.200195
168.548828	12460.887695
167.247070	12450.820312
165.944336	12379.348633
164.640625	12371.217773
163.337891	12324.725586
162.034180	12239.891602
160.730469	12287.398438
159.426758	12235.195312
158.122070	12311.435547
156.817383	12360.815430
155.512695	12402.512695
154.208008	12390.553711
152.902344	12158.338867
151.596680	12178.984375
150.291016	12061.772461
148.985352	12044.142578
147.678711	12016.951172
146.372070	12144.758789
145.065430	11991.291992
143.758789	12054.022461
142.451172	12005.810547
141.143555	11940.409180
139.835938	11962.966797
138.528320	12021.829102
137.219727	11799.766602
135.911133	11938.878906
134.602539	11736.018555
133.292969	11653.551758
131.984375	11641.765625
130.674805	11404.713867
129.364258	11379.618164
128.054688	11100.723633
126.744141	11043.259766
125.433594	10913.328125
124.123047	10669.012695
122.811523	10470.554688
121.500000	10287.425781
120.188477	9913.752930
