#Wave		#Intensity
1698.992188	143612.828125
1697.971680	143071.406250
1696.951172	143555.562500
1695.930664	143875.468750
1694.909180	144058.140625
1693.887695	143780.484375
1692.867188	144048.750000
1691.844727	143839.703125
1690.823242	142796.343750
1689.801758	143517.234375
1688.779297	143188.515625
1687.756836	143764.765625
1686.734375	143267.406250
1685.711914	143374.046875
1684.689453	143478.203125
1683.666016	143843.796875
1682.643555	143664.390625
1681.620117	142644.656250
1680.596680	143129.875000
1679.572266	143185.109375
1678.548828	143223.234375
1677.524414	143017.203125
1676.500000	142799.046875
1675.475586	143027.546875
1674.451172	143780.546875
1673.426758	142610.937500
1672.401367	143295.437500
1671.375977	143567.562500
1670.350586	143125.171875
1669.325195	143270.453125
1668.299805	142950.140625
1667.274414	142547.078125
1666.248047	142541.312500
1665.221680	142650.015625
1664.195312	142179.015625
1663.168945	141951.687500
1662.141602	142148.078125
1661.115234	142023.062500
1660.087891	141864.015625
1659.060547	142549.437500
1658.033203	141855.078125
1657.004883	141953.984375
1655.977539	141994.468750
1654.949219	142190.578125
1653.920898	142262.609375
1652.892578	141838.703125
1651.863281	141536.468750
1650.834961	141703.343750
1649.805664	141619.890625
1648.776367	141351.843750
1647.747070	141380.203125
1646.717773	141396.390625
1645.688477	140859.015625
1644.658203	141239.406250
1643.627930	140876.984375
1642.597656	141218.390625
1641.567383	141016.218750
1640.537109	141372.031250
1639.505859	141094.703125
1638.474609	141316.984375
1637.444336	141071.281250
1636.412109	140922.609375
1635.380859	140798.234375
1634.349609	140661.765625
1633.317383	140055.343750
1632.285156	140728.078125
1631.252930	139671.390625
1630.220703	139837.875000
1629.187500	140113.250000
1628.155273	139047.531250
1627.122070	140022.328125
1626.088867	139632.093750
1625.055664	138915.390625
1624.021484	139434.937500
1622.988281	140491.187500
1621.954102	139912.515625
1620.919922	138937.562500
1619.885742	139251.265625
1618.851562	138919.609375
1617.816406	139600.468750
1616.782227	138930.625000
1615.747070	139736.828125
1614.711914	139286.968750
1613.675781	139527.796875
1612.640625	138489.078125
1611.604492	138720.312500
1610.568359	139255.515625
1609.532227	138666.171875
1608.496094	138805.546875
1607.459961	138542.093750
1606.422852	138698.328125
1605.385742	138909.937500
1604.349609	138523.640625
1603.311523	138349.578125
1602.274414	138129.765625
1601.237305	138069.062500
1600.199219	138540.750000
1599.161133	138094.609375
1598.123047	138472.203125
1597.084961	138457.203125
1596.045898	137825.937500
1595.006836	137965.078125
1593.968750	137909.250000
1592.929688	138019.437500
1591.889648	137937.156250
1590.850586	137638.421875
1589.810547	137712.515625
1588.771484	138310.703125
1587.731445	137581.781250
1586.690430	137739.937500
1585.650391	137270.875000
1584.610352	138190.640625
1583.569336	138029.109375
1582.528320	137288.843750
1581.487305	138232.093750
1580.445312	137335.984375
1579.404297	137729.203125
1578.362305	138175.062500
1577.320312	137214.640625
1576.278320	138785.609375
1575.236328	137208.953125
1574.194336	137752.890625
1573.151367	138159.968750
1572.108398	137447.312500
1571.065430	137648.140625
1570.022461	137235.375000
1568.979492	138102.281250
1567.935547	137905.187500
1566.891602	138374.031250
1565.847656	137250.156250
1564.803711	137405.265625
1563.759766	137553.156250
1562.714844	137605.234375
1561.669922	137477.796875
1560.625977	137635.140625
1559.580078	137330.718750
1558.535156	137949.640625
1557.490234	137738.515625
1556.444336	137386.390625
1555.398438	138095.812500
1554.352539	137105.562500
1553.306641	137539.953125
1552.259766	137087.734375
1551.213867	137295.015625
1550.166992	137325.453125
1549.120117	137513.500000
1548.073242	137001.906250
1547.025391	136578.812500
1545.978516	137463.796875
1544.930664	137852.109375
1543.882812	137414.765625
1542.834961	137457.031250
1541.786133	137244.093750
1540.738281	136520.921875
1539.689453	136508.484375
1538.640625	136906.046875
1537.591797	137043.687500
1536.542969	136940.593750
1535.493164	136818.468750
1534.443359	136758.312500
1533.393555	137315.031250
1532.343750	136969.046875
1531.293945	136475.593750
1530.244141	137760.421875
1529.193359	136786.234375
1528.142578	136188.359375
1527.091797	136746.906250
1526.041016	135630.687500
1524.989258	136683.812500
1523.938477	136440.640625
1522.886719	137051.031250
1521.834961	135688.328125
1520.783203	135880.359375
1519.730469	136288.546875
1518.678711	136297.453125
1517.625977	136368.125000
1516.573242	136075.406250
1515.520508	136188.812500
1514.466797	135483.140625
1513.414062	135411.468750
1512.360352	136054.125000
1511.306641	135908.796875
1510.252930	135035.234375
1509.199219	135639.640625
1508.144531	135292.890625
1507.090820	135837.750000
1506.036133	134711.140625
1504.981445	135037.843750
1503.925781	135783.875000
1502.871094	135413.671875
1501.815430	135633.468750
1500.759766	134988.671875
1499.704102	134112.046875
1498.648438	134417.156250
1497.592773	134352.875000
1496.536133	133881.531250
1495.479492	134479.937500
1494.422852	134186.171875
1493.366211	133816.812500
1492.308594	134471.656250
1491.251953	135022.203125
1490.194336	133981.421875
1489.136719	134330.937500
1488.079102	133952.406250
1487.020508	134377.390625
1485.962891	133947.000000
1484.904297	133738.781250
1483.845703	133301.546875
1482.787109	133759.390625
1481.728516	133501.734375
1480.668945	133067.125000
1479.609375	133125.906250
1478.549805	132809.484375
1477.490234	132953.218750
1476.430664	133111.031250
1475.370117	133242.843750
1474.310547	133523.171875
1473.250000	133265.859375
1472.189453	132782.375000
1471.127930	132834.015625
1470.067383	132404.953125
1469.005859	132049.078125
1467.944336	132727.328125
1466.882812	132731.812500
1465.821289	131961.656250
1464.759766	132305.250000
1463.697266	131973.218750
1462.634766	132229.625000
1461.572266	131998.875000
1460.509766	132459.828125
1459.446289	131617.593750
1458.383789	131518.765625
1457.320312	131993.640625
1456.256836	131560.953125
1455.193359	132063.843750
1454.128906	131673.593750
1453.065430	131924.875000
1452.000977	130921.679688
1450.936523	131955.093750
1449.872070	131567.468750
1448.806641	130912.328125
1447.742188	131355.984375
1446.676758	130968.648438
1445.611328	131712.484375
1444.545898	131118.765625
1443.479492	130745.742188
1442.414062	131076.421875
1441.347656	131069.328125
1440.281250	130262.789062
1439.214844	131148.890625
1438.147461	131033.968750
1437.081055	130469.195312
1436.013672	130026.437500
1434.946289	130820.578125
1433.878906	130717.484375
1432.811523	129806.609375
1431.743164	129888.664062
1430.675781	130417.742188
1429.607422	130062.031250
1428.539062	130239.906250
1427.469727	129662.101562
1426.401367	129687.945312
1425.332031	129942.953125
1424.262695	129964.054688
1423.193359	129646.171875
1422.124023	129671.976562
1421.053711	129440.718750
1419.984375	129611.398438
1418.914062	129148.953125
1417.843750	129508.804688
1416.772461	129329.085938
1415.702148	129380.578125
1414.630859	129021.195312
1413.559570	129712.195312
1412.488281	128827.835938
1411.416992	128559.726562
1410.345703	129549.007812
1409.273438	128520.531250
1408.201172	128956.812500
1407.128906	128660.867188
1406.056641	128206.523438
1404.983398	129073.757812
1403.911133	128251.320312
1402.837891	128521.820312
1401.764648	129402.492188
1400.691406	128168.210938
1399.617188	128561.976562
1398.542969	128638.968750
1397.469727	128408.687500
1396.395508	128341.382812
1395.320312	128497.476562
1394.246094	128567.429688
1393.170898	128518.726562
1392.096680	127958.414062
1391.020508	126693.789062
1389.945312	127333.546875
1388.870117	127907.992188
1387.793945	127840.828125
1386.717773	128456.789062
1385.641602	128661.335938
1384.565430	127611.593750
1383.489258	127203.156250
1382.412109	127138.476562
1381.334961	128030.226562
1380.257812	127104.335938
1379.180664	126659.132812
1378.103516	127204.765625
1377.025391	127622.617188
1375.947266	126732.242188
1374.869141	126966.828125
1373.791016	126477.968750
1372.712891	127570.171875
1371.633789	126930.726562
1370.555664	127202.156250
1369.476562	126090.375000
1368.396484	126806.593750
1367.317383	126612.382812
1366.237305	127136.046875
1365.158203	126670.968750
1364.078125	126798.617188
1362.997070	126042.156250
1361.916992	126262.414062
1360.835938	125989.820312
1359.755859	125941.687500
1358.674805	126675.218750
1357.593750	126273.203125
1356.511719	126169.539062
1355.430664	125869.453125
1354.348633	125752.023438
1353.266602	125727.054688
1352.184570	126034.742188
1351.101562	125868.835938
1350.019531	125271.140625
1348.936523	125414.804688
1347.853516	125586.109375
1346.770508	126315.890625
1345.686523	125693.140625
1344.603516	125811.226562
1343.519531	125331.804688
1342.435547	125456.812500
1341.351562	125127.507812
1340.267578	125591.414062
1339.182617	125430.460938
1338.097656	124983.773438
1337.012695	125631.781250
1335.927734	124931.789062
1334.842773	124510.765625
1333.756836	124925.882812
1332.670898	124382.953125
1331.584961	124834.773438
1330.499023	124280.539062
1329.413086	124651.656250
1328.326172	124401.375000
1327.239258	125069.093750
1326.152344	125016.625000
1325.065430	124405.335938
1323.978516	124741.578125
1322.890625	124286.875000
1321.803711	124439.132812
1320.715820	125142.851562
1319.626953	123357.976562
1318.539062	124438.375000
1317.450195	124392.945312
1316.362305	123474.898438
1315.273438	123693.679688
1314.183594	124736.492188
1313.094727	123580.164062
1312.004883	123970.906250
1310.916016	123627.312500
1309.826172	123962.835938
1308.735352	123851.000000
1307.645508	123443.398438
1306.554688	123836.070312
1305.464844	123064.140625
1304.374023	123145.039062
1303.282227	123021.968750
1302.191406	123794.726562
1301.099609	123050.820312
1300.008789	122808.734375
1298.916992	123214.726562
1297.824219	122663.625000
1296.732422	123064.906250
1295.639648	122296.609375
1294.546875	121858.070312
1293.454102	122634.453125
1292.361328	122260.039062
1291.268555	122130.460938
1290.174805	122250.140625
1289.081055	121729.679688
1287.987305	122395.648438
1286.893555	121493.710938
1285.799805	121944.695312
1284.705078	122429.781250
1283.610352	121733.867188
1282.515625	121312.226562
1281.420898	121532.304688
1280.325195	121259.218750
1279.230469	121880.898438
1278.134766	121025.953125
1277.039062	120716.593750
1275.942383	120713.000000
1274.846680	120759.585938
1273.750000	120573.554688
1272.653320	120150.484375
1271.556641	120062.640625
1270.459961	119810.734375
1269.363281	119971.335938
1268.265625	120291.359375
1267.167969	120627.195312
1266.070312	119917.593750
1264.972656	119759.273438
1263.874023	119414.320312
1262.775391	119492.851562
1261.676758	119585.007812
1260.578125	119303.968750
1259.479492	119348.335938
1258.379883	118444.226562
1257.281250	119202.781250
1256.181641	119706.414062
1255.082031	119523.335938
1253.981445	118724.375000
1252.881836	118686.960938
1251.781250	119213.015625
1250.680664	118260.062500
1249.580078	119262.953125
1248.479492	118798.539062
1247.377930	118618.085938
1246.276367	118853.101562
1245.174805	118173.398438
1244.073242	118387.968750
1242.971680	118470.875000
1241.869141	118354.140625
1240.766602	118852.039062
1239.664062	118025.531250
1238.561523	118654.796875
1237.458984	118343.148438
1236.355469	117741.531250
1235.251953	118327.437500
1234.148438	117553.851562
1233.044922	118436.289062
1231.941406	118584.656250
1230.836914	117342.742188
1229.732422	117590.859375
1228.627930	117866.031250
1227.523438	118299.515625
1226.417969	117087.945312
1225.313477	118202.312500
1224.208008	117941.125000
1223.102539	117670.984375
1221.996094	117502.671875
1220.890625	117305.031250
1219.784180	117604.687500
1218.677734	117730.226562
1217.571289	117769.859375
1216.464844	117759.781250
1215.357422	117422.226562
1214.250977	117258.656250
1213.143555	117783.726562
1212.036133	117326.695312
1210.927734	117400.187500
1209.820312	117281.843750
1208.711914	117538.046875
1207.603516	116991.148438
1206.495117	117208.953125
1205.386719	117070.421875
1204.277344	117055.929688
1203.167969	116665.023438
1202.058594	117599.335938
1200.949219	117406.742188
1199.839844	117092.562500
1198.729492	116521.726562
1197.619141	116856.359375
1196.508789	117105.312500
1195.398438	116883.687500
1194.288086	117319.343750
1193.176758	116879.476562
1192.065430	116750.242188
1190.954102	116551.320312
1189.842773	116831.507812
1188.730469	117248.765625
1187.619141	116874.484375
1186.506836	116484.593750
1185.394531	116530.843750
1184.281250	116287.203125
1183.168945	116546.890625
1182.055664	116925.523438
1180.942383	116646.000000
1179.829102	116438.421875
1178.715820	116363.375000
1177.601562	115873.101562
1176.488281	116554.445312
1175.374023	116611.781250
1174.258789	116397.640625
1173.144531	115838.171875
1172.029297	115586.117188
1170.915039	116300.507812
1169.799805	115649.429688
1168.684570	115310.125000
1167.568359	115593.906250
1166.453125	116083.703125
1165.336914	115538.398438
1164.220703	115568.890625
1163.103516	115503.070312
1161.987305	115656.679688
1160.870117	114767.117188
1159.752930	114920.789062
1158.635742	114537.375000
1157.518555	115216.773438
1156.401367	114726.070312
1155.283203	115136.812500
1154.165039	113993.375000
1153.046875	114797.554688
1151.928711	114939.820312
1150.809570	114259.625000
1149.690430	114102.523438
1148.571289	114546.406250
1147.452148	114353.562500
1146.333008	114401.960938
1145.212891	113653.242188
1144.093750	114081.242188
1142.973633	114018.046875
1141.852539	113856.687500
1140.732422	113755.625000
1139.611328	113143.757812
1138.490234	113723.093750
1137.369141	113361.195312
1136.248047	113599.156250
1135.126953	112825.023438
1134.004883	113359.398438
1132.882812	113434.554688
1131.760742	113104.203125
1130.638672	112508.898438
1129.515625	112550.750000
1128.393555	113098.023438
1127.270508	112888.171875
1126.147461	112549.289062
1125.023438	112760.210938
1123.900391	112746.328125
1122.776367	112727.984375
1121.652344	112280.375000
1120.528320	112508.968750
1119.403320	112339.476562
1118.279297	112050.000000
1117.154297	112154.023438
1116.029297	112293.562500
1114.904297	111917.585938
1113.778320	112125.968750
1112.653320	112587.460938
1111.527344	111603.187500
1110.401367	112337.679688
1109.274414	111753.359375
1108.148438	112225.656250
1107.021484	111963.312500
1105.894531	111508.039062
1104.767578	111332.414062
1103.640625	111837.687500
1102.512695	110912.609375
1101.385742	111012.070312
1100.257812	111317.625000
1099.128906	111193.140625
1098.000977	111726.765625
1096.872070	110899.992188
1095.744141	111666.023438
1094.615234	111320.101562
1093.485352	111428.187500
1092.356445	110973.945312
1091.226562	110754.484375
1090.096680	110984.304688
1088.966797	111129.960938
1087.836914	111768.851562
1086.706055	111275.132812
1085.576172	110387.992188
1084.445312	111398.070312
1083.314453	111074.882812
1082.182617	111399.351562
1081.051758	110961.367188
1079.919922	111639.203125
1078.788086	110733.054688
1077.656250	110748.148438
1076.523438	111366.015625
1075.391602	110864.398438
1074.258789	110605.750000
1073.125977	111066.609375
1071.993164	111041.882812
1070.859375	110143.585938
1069.726562	110385.914062
1068.592773	110917.023438
1067.458984	110918.781250
1066.324219	110627.351562
1065.190430	110697.484375
1064.055664	110811.648438
1062.920898	110910.351562
1061.786133	110601.492188
1060.650391	110854.351562
1059.515625	110316.601562
1058.379883	110294.210938
1057.244141	110364.273438
1056.108398	109782.882812
1054.971680	109833.203125
1053.835938	109799.898438
1052.699219	109894.179688
1051.562500	110192.937500
1050.424805	109871.539062
1049.288086	110031.687500
1048.150391	109686.242188
1047.012695	110112.257812
1045.875000	110067.929688
1044.737305	110043.382812
1043.598633	109917.804688
1042.459961	109921.828125
1041.321289	109932.429688
1040.182617	110173.515625
1039.043945	109413.710938
1037.904297	109663.570312
1036.764648	110095.429688
1035.625000	109820.812500
1034.485352	109519.968750
1033.344727	109100.828125
1032.205078	109319.796875
1031.064453	109060.843750
1029.923828	108970.726562
1028.782227	109233.406250
1027.641602	108536.460938
1026.500000	109351.070312
1025.358398	109363.875000
1024.216797	109190.562500
1023.074219	108741.476562
1021.932617	108760.937500
1020.790039	108979.523438
1019.647461	108970.476562
1018.503906	109066.429688
1017.361328	108729.304688
1016.217773	108584.718750
1015.074219	108138.476562
1013.930664	108584.234375
1012.787109	108542.460938
1011.642578	108662.398438
1010.498047	107279.218750
1009.353516	108380.078125
1008.208984	107715.945312
1007.064453	108102.304688
1005.918945	107947.117188
1004.773438	107615.187500
1003.627930	108361.414062
1002.482422	107708.781250
1001.335938	107726.101562
1000.189453	107339.906250
999.043945	107590.601562
997.896484	107627.539062
996.750000	108396.898438
995.602539	108143.789062
994.456055	107568.273438
993.308594	108332.843750
992.160156	107766.203125
991.012695	107389.242188
989.864258	107937.835938
988.715820	107493.484375
987.567383	108377.062500
986.418945	107306.007812
985.269531	108026.101562
984.121094	107964.921875
982.971680	107499.187500
981.821289	107127.140625
980.671875	107679.296875
979.521484	107398.640625
978.372070	107350.648438
977.221680	107615.593750
976.070312	107715.312500
974.919922	107156.789062
973.768555	107232.656250
972.617188	107645.070312
971.465820	107907.523438
970.314453	107679.296875
969.162109	106938.968750
968.009766	107272.992188
966.857422	107381.273438
965.705078	107053.515625
964.552734	107291.898438
963.399414	107356.734375
962.246094	107358.664062
961.092773	107516.656250
959.939453	107043.953125
958.785156	107048.093750
957.631836	107154.046875
956.477539	107091.015625
955.322266	106941.382812
954.167969	106908.710938
953.012695	106921.507812
951.858398	106834.742188
950.703125	106646.296875
949.546875	106572.578125
948.391602	106769.273438
947.235352	106606.882812
946.079102	106969.992188
944.922852	106176.328125
943.766602	105564.523438
942.609375	106817.992188
941.452148	106284.070312
940.294922	107158.875000
939.137695	106324.851562
937.980469	106234.007812
936.822266	106471.375000
935.664062	106557.546875
934.505859	106194.742188
933.347656	106475.132812
932.188477	105756.476562
931.030273	106015.265625
929.871094	106345.125000
928.710938	105969.734375
927.551758	106482.726562
926.391602	105594.414062
925.232422	105667.632812
924.071289	106003.695312
922.911133	105570.515625
921.750977	105925.851562
920.589844	106263.820312
919.428711	105794.218750
918.267578	105214.992188
917.105469	105214.960938
915.944336	105309.617188
914.782227	105361.203125
913.620117	104933.046875
912.458008	105148.140625
911.294922	104804.039062
910.132812	105326.507812
908.969727	105109.320312
907.806641	104812.679688
906.642578	104299.117188
905.479492	104374.414062
904.315430	103968.507812
903.151367	104685.960938
901.987305	104237.203125
900.822266	104035.492188
899.657227	104602.265625
898.493164	103829.703125
897.327148	104658.070312
896.162109	104559.382812
894.997070	104769.578125
893.831055	104475.750000
892.665039	104452.179688
891.499023	104767.304688
890.332031	104055.687500
889.165039	104366.476562
887.999023	104287.218750
886.831055	104563.570312
885.664062	104023.828125
884.497070	103582.781250
883.329102	103576.500000
882.161133	103499.578125
880.993164	103994.085938
879.824219	103865.750000
878.656250	103769.546875
877.487305	103399.593750
876.318359	103504.523438
875.148438	103782.593750
873.979492	103650.117188
872.809570	103652.335938
871.639648	103481.460938
870.469727	103573.437500
869.298828	103968.710938
868.128906	103814.937500
866.958008	103906.789062
865.787109	103543.843750
864.616211	103776.585938
863.444336	103317.757812
862.272461	103972.929688
861.100586	103840.632812
859.928711	103691.320312
858.756836	103693.468750
857.583984	103399.242188
856.411133	103868.296875
855.238281	103614.632812
854.065430	103842.664062
852.891602	103574.171875
851.718750	103439.976562
850.544922	103725.406250
849.370117	104336.531250
848.196289	103589.093750
847.021484	103740.218750
845.847656	103678.453125
844.671875	103746.507812
843.497070	103812.406250
842.322266	103337.992188
841.146484	103842.031250
839.970703	103854.703125
838.794922	104143.734375
837.618164	103771.617188
836.442383	103792.781250
835.265625	103646.085938
834.088867	103939.164062
832.911133	103518.492188
831.734375	103758.398438
830.556641	103361.257812
829.378906	103974.695312
828.201172	103098.000000
827.023438	103872.523438
825.844727	103904.195312
824.666016	103838.281250
823.487305	103950.531250
822.308594	103602.609375
821.128906	103683.054688
819.949219	104607.062500
818.769531	103593.765625
817.589844	103917.820312
816.410156	103599.859375
815.229492	103887.773438
814.048828	103980.750000
812.868164	103561.312500
811.687500	103402.398438
810.505859	103696.468750
809.324219	104102.570312
808.142578	103236.992188
806.960938	103283.421875
805.779297	103672.445312
804.596680	103665.906250
803.414062	103196.375000
802.231445	103166.664062
801.047852	103363.085938
799.865234	103162.195312
798.681641	103789.500000
797.498047	104074.398438
796.314453	103907.257812
795.129883	103529.046875
793.946289	103321.960938
792.761719	103184.593750
791.577148	103462.984375
790.391602	102713.789062
789.207031	102878.242188
788.021484	103388.507812
786.835938	102490.015625
785.649414	102861.015625
784.463867	102721.773438
783.277344	102888.156250
782.090820	102453.960938
780.904297	102573.976562
779.717773	102767.656250
778.530273	102877.031250
777.342773	103091.640625
776.155273	102245.179688
774.967773	102379.835938
773.779297	103107.851562
772.590820	102722.609375
771.402344	102219.710938
770.213867	102804.328125
769.025391	102143.882812
767.835938	102328.828125
766.646484	102484.281250
765.457031	102208.835938
764.267578	102681.523438
763.077148	102315.804688
761.886719	102700.070312
760.696289	102569.679688
759.505859	102292.351562
758.314453	102533.640625
757.124023	101727.507812
755.932617	102046.445312
754.741211	102602.343750
753.548828	102065.132812
752.357422	101932.898438
751.165039	102649.953125
749.972656	101985.132812
748.779297	101741.882812
747.586914	102246.890625
746.393555	102204.820312
745.200195	101722.820312
744.006836	101850.515625
742.813477	101672.406250
741.619141	101693.265625
740.424805	101199.140625
739.230469	101278.679688
738.036133	101496.296875
736.840820	102205.500000
735.645508	101849.695312
734.450195	101755.445312
733.254883	102022.976562
732.058594	101817.914062
730.863281	101861.664062
729.666992	101326.492188
728.470703	101572.992188
727.273438	101447.531250
726.077148	101643.781250
724.879883	101685.414062
723.682617	101025.468750
722.484375	101756.085938
721.287109	101908.281250
720.088867	101574.195312
718.890625	102254.210938
717.692383	101252.648438
716.493164	101577.914062
715.294922	101304.585938
714.095703	101638.046875
712.896484	101368.968750
711.696289	102075.335938
710.497070	101374.945312
709.296875	101597.710938
708.096680	101887.039062
706.895508	101618.148438
705.695312	101703.312500
704.494141	101657.281250
703.292969	101550.914062
702.091797	101812.906250
700.890625	101662.843750
699.688477	101269.453125
698.486328	102005.531250
697.284180	101169.296875
696.082031	101237.750000
694.878906	102031.609375
693.675781	101395.335938
692.472656	101083.445312
691.269531	101685.742188
690.065430	101554.609375
688.862305	100702.906250
687.658203	101186.578125
686.453125	101726.117188
685.249023	101439.390625
684.043945	101239.921875
682.838867	101069.570312
681.633789	101204.203125
680.428711	101898.757812
679.222656	101618.460938
678.017578	101406.679688
676.811523	101791.945312
675.604492	101654.812500
674.398438	101378.898438
673.191406	101140.367188
671.984375	100961.992188
670.777344	101440.148438
669.570312	101359.085938
668.362305	100630.101562
667.154297	100487.117188
665.946289	100989.820312
664.738281	101198.539062
663.529297	101400.960938
662.320312	100821.539062
661.111328	100829.578125
659.902344	101201.476562
658.692383	101027.539062
657.483398	101068.585938
656.273438	100919.523438
655.063477	100892.390625
653.852539	100865.273438
652.641602	100631.648438
651.431641	100895.695312
650.219727	100517.640625
649.008789	100657.765625
647.796875	100837.039062
646.585938	100488.078125
645.374023	100130.992188
644.161133	100423.679688
642.949219	100229.625000
641.736328	100235.617188
640.523438	100111.742188
639.310547	100698.906250
638.096680	99800.250000
636.883789	100523.203125
635.669922	100228.390625
634.456055	99680.398438
633.241211	99840.867188
632.027344	99538.101562
630.812500	99107.843750
629.597656	100074.960938
628.382812	100080.914062
627.166992	99823.570312
625.951172	99876.859375
624.735352	99629.921875
623.519531	99876.468750
622.303711	99477.507812
621.086914	99820.570312
619.870117	99791.601562
618.653320	99606.515625
617.435547	100068.476562
616.218750	99852.593750
615.000977	99275.437500
613.783203	99733.078125
612.564453	99468.101562
611.346680	99180.656250
610.127930	100017.593750
608.909180	99440.921875
607.690430	99311.539062
606.470703	99750.179688
605.250977	99610.531250
604.031250	99682.046875
602.811523	99181.773438
601.591797	99445.929688
600.371094	99449.820312
599.150391	99162.875000
597.929688	98779.781250
596.708984	98697.789062
595.487305	99047.734375
594.265625	99129.445312
593.043945	99272.507812
591.822266	98775.164062
590.599609	99390.726562
589.376953	99241.195312
588.154297	99907.554688
586.931641	98619.296875
585.708984	99446.976562
584.485352	98676.296875
583.261719	98921.351562
582.038086	98927.296875
580.813477	99548.000000
579.589844	99016.773438
578.365234	99069.648438
577.140625	99351.117188
575.915039	98961.031250
574.690430	99336.265625
573.464844	99185.007812
572.239258	98993.007812
571.012695	98943.835938
569.787109	98627.570312
568.560547	98692.632812
567.333984	99055.234375
566.107422	98928.625000
564.879883	99024.140625
563.652344	98475.914062
562.425781	98836.234375
561.197266	98748.429688
559.969727	98408.210938
558.741211	98422.289062
557.512695	98611.382812
556.284180	98698.656250
555.055664	98669.937500
553.826172	98805.976562
552.596680	98173.265625
551.367188	98528.921875
550.137695	97845.664062
548.907227	97774.429688
547.676758	98327.054688
546.446289	98156.195312
545.215820	98062.585938
543.985352	97572.976562
542.753906	98155.664062
541.522461	97909.828125
540.291016	97377.882812
539.058594	97258.101562
537.826172	97373.718750
536.593750	97842.273438
535.361328	97055.164062
534.128906	97304.585938
532.895508	96767.242188
531.662109	97276.078125
530.428711	96759.203125
529.195312	96619.421875
527.960938	96208.203125
526.726562	96668.132812
525.492188	96362.359375
524.257812	96135.664062
523.022461	96528.531250
521.788086	96735.023438
520.552734	96664.195312
519.316406	96269.671875
518.081055	96152.421875
516.844727	95843.070312
515.608398	96081.835938
514.372070	95495.625000
513.134766	95550.414062
511.898438	96072.023438
510.661133	95629.593750
509.423828	95056.015625
508.185547	95864.234375
506.947266	95381.695312
505.709961	95957.335938
504.470703	95804.000000
503.232422	95380.265625
501.993164	95949.515625
500.754883	96193.710938
499.515625	95636.992188
498.275391	95786.367188
497.036133	95629.171875
495.795898	95605.101562
494.555664	95615.296875
493.314453	95365.507812
492.074219	95927.828125
490.833008	95496.757812
489.591797	95212.882812
488.350586	95110.351562
487.108398	95235.359375
485.867188	95855.523438
484.625000	95535.546875
483.382812	95441.062500
482.139648	95577.976562
480.896484	95260.226562
479.653320	95580.125000
478.410156	95298.687500
477.166992	95310.859375
475.922852	94949.164062
474.678711	95576.328125
473.434570	95606.507812
472.190430	95415.703125
470.945312	95461.968750
469.700195	95809.414062
468.455078	95676.890625
467.209961	95130.898438
465.963867	95239.375000
464.718750	94996.656250
463.472656	94864.367188
462.225586	95546.484375
460.979492	95075.210938
459.732422	95023.164062
458.485352	94722.562500
457.238281	94664.585938
455.990234	94666.742188
454.742188	94482.562500
453.494141	94236.351562
452.246094	94543.000000
450.998047	94891.570312
449.749023	94357.117188
448.500000	94549.460938
447.250977	94503.570312
446.000977	93859.437500
444.751953	93565.625000
443.501953	93831.953125
442.251953	93916.203125
441.000977	93306.632812
439.750977	93892.687500
438.500000	93425.250000
437.249023	93627.390625
435.997070	93603.687500
434.746094	93136.554688
433.494141	93454.453125
432.242188	92917.632812
430.989258	93181.539062
429.737305	92181.898438
428.484375	92567.562500
427.231445	92763.539062
425.978516	92558.476562
424.724609	93083.453125
423.470703	92902.328125
422.216797	92228.812500
420.962891	92350.890625
419.708008	92331.421875
418.454102	92762.273438
417.199219	92521.593750
415.943359	92956.218750
414.688477	92976.460938
413.432617	93321.226562
412.176758	92748.156250
410.920898	93116.718750
409.664062	92914.015625
408.408203	92335.367188
407.151367	92691.843750
405.893555	91976.218750
404.636719	92326.656250
403.378906	91901.617188
402.121094	92039.242188
400.863281	91934.367188
399.605469	91972.578125
398.346680	91535.992188
397.087891	91697.406250
395.829102	91566.835938
394.570312	91803.617188
393.310547	91935.093750
392.050781	91695.390625
390.791016	91370.437500
389.531250	91654.671875
388.270508	91607.546875
387.009766	91219.328125
385.749023	91096.945312
384.488281	91488.046875
383.226562	91421.148438
381.964844	91031.257812
380.703125	91271.562500
379.441406	91216.609375
378.178711	91272.585938
376.916016	90958.250000
375.653320	90507.421875
374.390625	90979.164062
373.126953	90655.156250
371.864258	90871.437500
370.599609	90919.476562
369.335938	90745.968750
368.072266	90977.914062
366.807617	90104.539062
365.542969	90190.234375
364.277344	90633.609375
363.012695	90493.890625
361.747070	90545.859375
360.481445	90777.554688
359.215820	90471.984375
357.949219	90948.437500
356.683594	91288.484375
355.416992	91423.125000
354.149414	92341.156250
352.882812	92315.726562
351.615234	92469.812500
350.347656	92576.500000
349.080078	92969.062500
347.811523	93389.078125
346.543945	93692.632812
345.275391	94380.367188
344.005859	94707.250000
342.737305	93909.125000
341.467773	92813.882812
340.198242	91722.984375
338.928711	90937.679688
337.659180	90068.015625
336.388672	90035.148438
335.118164	89059.726562
333.847656	89294.625000
332.576172	88801.625000
331.305664	88717.867188
330.034180	88321.507812
328.761719	88251.632812
327.490234	88629.921875
326.217773	88609.132812
324.945312	88032.312500
323.672852	88457.562500
322.400391	87855.445312
321.126953	88076.335938
319.853516	87588.390625
318.580078	87885.789062
317.305664	87684.585938
316.032227	87612.960938
314.757812	87925.867188
313.483398	88242.570312
312.208008	87368.796875
310.933594	87765.867188
309.658203	86917.992188
308.382812	87373.789062
307.106445	87611.898438
305.830078	87587.375000
304.554688	87639.257812
303.277344	88548.914062
302.000977	88207.007812
300.723633	87894.593750
299.446289	88269.320312
298.168945	88283.820312
296.891602	88447.000000
295.613281	88713.804688
294.334961	89127.187500
293.056641	89417.210938
291.778320	89468.601562
290.499023	88280.679688
289.219727	87892.531250
287.940430	88211.859375
286.661133	87999.687500
285.380859	87443.828125
284.100586	87247.492188
282.820312	86157.000000
281.539062	86529.039062
280.258789	86319.320312
278.977539	86010.156250
277.696289	85478.695312
276.414062	85417.531250
275.132812	86011.664062
273.850586	85379.101562
272.568359	85358.921875
271.285156	85800.679688
270.002930	85949.960938
268.719727	85538.039062
267.435547	86567.804688
266.152344	86960.289062
264.868164	88010.796875
263.583984	89284.796875
262.299805	90731.546875
261.015625	93396.039062
259.730469	96917.593750
258.445312	101208.179688
257.160156	106269.312500
255.875000	109096.023438
254.588867	110502.312500
253.302734	108789.992188
252.016602	104114.398438
250.730469	100245.070312
249.443359	95326.148438
248.156250	92728.375000
246.869141	90323.859375
245.581055	88493.054688
244.293945	86748.367188
243.005859	86135.921875
241.717773	84937.640625
240.428711	84420.835938
239.139648	83927.507812
237.850586	83215.195312
236.561523	82947.210938
235.272461	81989.132812
233.982422	82413.468750
232.692383	82438.414062
231.402344	82039.007812
230.112305	82556.070312
228.821289	82362.093750
227.530273	82576.789062
226.239258	82398.367188
224.947266	81767.031250
223.655273	80644.343750
222.363281	80570.875000
221.071289	80485.812500
219.779297	79814.695312
218.486328	79335.289062
217.193359	79380.054688
215.900391	79158.015625
214.606445	79336.148438
213.313477	79123.859375
212.019531	78766.742188
210.724609	78262.953125
209.430664	78653.554688
208.135742	78227.203125
206.840820	77938.085938
205.545898	77907.726562
204.250000	77863.867188
202.954102	77526.734375
201.658203	77521.539062
200.362305	76852.851562
199.066406	77005.906250
197.769531	77212.875000
196.472656	76712.328125
195.174805	76373.851562
193.877930	75975.773438
192.580078	76165.429688
191.282227	75752.125000
189.984375	75697.171875
188.685547	75480.500000
187.386719	75581.539062
186.087891	75239.859375
184.789062	75260.085938
183.489258	75126.375000
182.189453	75531.320312
180.889648	75443.757812
179.589844	75304.312500
178.289062	74772.734375
176.988281	75194.718750
175.687500	75187.992188
174.386719	74798.906250
173.084961	74853.718750
171.783203	74553.195312
170.481445	74986.320312
169.179688	74574.515625
167.876953	74429.687500
166.574219	74540.156250
165.271484	74266.820312
163.968750	73889.992188
162.665039	74107.898438
161.361328	73439.750000
160.057617	73325.960938
158.752930	73768.125000
157.449219	73401.312500
156.144531	72534.515625
154.838867	72616.382812
153.534180	73108.132812
152.228516	72588.507812
150.922852	72658.828125
149.617188	71955.703125
148.310547	72378.281250
147.004883	71975.914062
145.698242	71799.460938
144.390625	71391.617188
143.083984	71647.578125
141.776367	71677.796875
140.468750	71059.898438
139.161133	70950.671875
137.852539	71365.125000
136.543945	70506.882812
135.235352	70214.429688
133.926758	69893.437500
132.617188	69589.742188
131.308594	68677.125000
129.998047	67600.687500
128.688477	66934.984375
127.377930	65844.023438
126.068359	65104.507812
124.756836	63648.089844
123.446289	62571.726562
122.134766	61015.296875
120.823242	59608.152344
119.511719	57841.324219
