#Wave		#Intensity
1698.992188	44835.523438
1697.971680	45063.363281
1696.951172	44428.328125
1695.930664	44283.316406
1694.909180	44691.742188
1693.887695	44620.175781
1692.867188	45050.421875
1691.844727	44719.402344
1690.823242	44696.804688
1689.801758	44549.445312
1688.779297	44930.472656
1687.756836	44827.140625
1686.734375	44841.207031
1685.711914	45131.519531
1684.689453	44837.546875
1683.666016	44768.511719
1682.643555	44745.921875
1681.620117	44630.507812
1680.596680	44654.355469
1679.572266	44983.453125
1678.548828	45024.316406
1677.524414	44679.449219
1676.500000	44539.730469
1675.475586	44841.765625
1674.451172	45082.695312
1673.426758	44394.085938
1672.401367	45003.304688
1671.375977	44941.679688
1670.350586	44448.511719
1669.325195	44798.984375
1668.299805	44627.742188
1667.274414	44873.269531
1666.248047	44714.253906
1665.221680	44757.484375
1664.195312	44747.117188
1663.168945	45026.535156
1662.141602	44675.250000
1661.115234	44440.937500
1660.087891	44479.300781
1659.060547	44641.753906
1658.033203	44950.132812
1657.004883	44596.730469
1655.977539	44260.480469
1654.949219	44427.714844
1653.920898	44777.234375
1652.892578	44467.863281
1651.863281	43993.332031
1650.834961	44887.058594
1649.805664	44495.222656
1648.776367	44246.843750
1647.747070	44511.007812
1646.717773	44427.835938
1645.688477	44400.527344
1644.658203	44081.937500
1643.627930	44042.562500
1642.597656	44689.917969
1641.567383	44228.300781
1640.537109	44016.691406
1639.505859	44350.839844
1638.474609	44483.609375
1637.444336	44347.218750
1636.412109	44322.375000
1635.380859	44568.980469
1634.349609	44216.984375
1633.317383	43867.535156
1632.285156	44150.414062
1631.252930	43755.082031
1630.220703	44105.679688
1629.187500	44160.789062
1628.155273	44169.890625
1627.122070	44084.601562
1626.088867	43975.144531
1625.055664	43800.402344
1624.021484	44126.417969
1622.988281	43997.660156
1621.954102	44001.933594
1620.919922	44119.828125
1619.885742	43889.613281
1618.851562	44084.816406
1617.816406	44002.078125
1616.782227	44262.410156
1615.747070	43872.914062
1614.711914	43983.449219
1613.675781	44108.429688
1612.640625	44064.378906
1611.604492	43725.875000
1610.568359	43783.257812
1609.532227	44137.394531
1608.496094	44148.847656
1607.459961	43974.570312
1606.422852	43867.878906
1605.385742	43802.214844
1604.349609	43910.136719
1603.311523	43680.585938
1602.274414	43566.785156
1601.237305	44004.769531
1600.199219	43452.523438
1599.161133	43825.339844
1598.123047	43653.792969
1597.084961	43248.761719
1596.045898	43674.371094
1595.006836	44193.687500
1593.968750	43528.886719
1592.929688	43581.289062
1591.889648	43559.101562
1590.850586	43760.589844
1589.810547	43300.726562
1588.771484	44021.503906
1587.731445	43597.808594
1586.690430	44169.261719
1585.650391	43805.765625
1584.610352	43548.105469
1583.569336	43852.625000
1582.528320	43424.523438
1581.487305	43611.292969
1580.445312	43413.863281
1579.404297	43518.953125
1578.362305	43319.207031
1577.320312	43479.457031
1576.278320	43908.351562
1575.236328	43262.484375
1574.194336	43638.500000
1573.151367	43544.402344
1572.108398	43690.082031
1571.065430	43737.425781
1570.022461	43787.152344
1568.979492	43721.843750
1567.935547	43845.816406
1566.891602	43641.593750
1565.847656	43310.515625
1564.803711	43056.175781
1563.759766	43551.234375
1562.714844	43392.679688
1561.669922	43325.117188
1560.625977	43248.007812
1559.580078	43606.316406
1558.535156	44019.507812
1557.490234	43330.109375
1556.444336	43757.542969
1555.398438	43766.476562
1554.352539	43598.531250
1553.306641	43640.941406
1552.259766	43506.527344
1551.213867	43651.656250
1550.166992	43562.667969
1549.120117	43433.109375
1548.073242	43594.882812
1547.025391	43811.496094
1545.978516	43400.324219
1544.930664	43640.757812
1543.882812	43186.816406
1542.834961	43434.355469
1541.786133	43417.062500
1540.738281	43542.855469
1539.689453	43876.023438
1538.640625	43596.445312
1537.591797	43624.417969
1536.542969	43509.402344
1535.493164	43794.679688
1534.443359	43679.671875
1533.393555	43593.281250
1532.343750	43504.539062
1531.293945	43492.011719
1530.244141	43853.203125
1529.193359	43355.109375
1528.142578	43621.011719
1527.091797	43541.847656
1526.041016	43329.511719
1524.989258	43704.667969
1523.938477	43637.417969
1522.886719	43201.695312
1521.834961	43476.839844
1520.783203	43438.179688
1519.730469	43651.398438
1518.678711	43398.906250
1517.625977	43616.800781
1516.573242	43067.546875
1515.520508	43575.101562
1514.466797	43396.386719
1513.414062	43080.070312
1512.360352	43395.121094
1511.306641	43304.320312
1510.252930	43002.417969
1509.199219	43153.648438
1508.144531	43036.847656
1507.090820	43221.207031
1506.036133	42836.558594
1504.981445	43054.066406
1503.925781	42771.480469
1502.871094	42896.515625
1501.815430	43144.687500
1500.759766	43144.078125
1499.704102	43025.066406
1498.648438	42643.289062
1497.592773	43326.886719
1496.536133	43042.226562
1495.479492	43084.218750
1494.422852	43559.164062
1493.366211	42915.050781
1492.308594	42978.328125
1491.251953	42951.722656
1490.194336	42979.503906
1489.136719	42941.082031
1488.079102	43049.207031
1487.020508	42876.097656
1485.962891	42672.332031
1484.904297	42685.957031
1483.845703	42763.339844
1482.787109	42732.074219
1481.728516	42762.199219
1480.668945	42804.113281
1479.609375	43063.132812
1478.549805	42692.050781
1477.490234	42509.828125
1476.430664	42629.589844
1475.370117	42381.410156
1474.310547	42517.652344
1473.250000	42696.281250
1472.189453	42580.210938
1471.127930	42520.742188
1470.067383	42800.585938
1469.005859	42543.207031
1467.944336	42304.761719
1466.882812	42381.960938
1465.821289	42692.230469
1464.759766	42199.636719
1463.697266	42166.187500
1462.634766	42182.164062
1461.572266	42153.433594
1460.509766	42188.222656
1459.446289	41886.664062
1458.383789	42100.207031
1457.320312	42537.031250
1456.256836	42371.910156
1455.193359	42162.187500
1454.128906	42413.121094
1453.065430	42327.984375
1452.000977	42219.386719
1450.936523	42169.546875
1449.872070	41755.746094
1448.806641	42034.691406
1447.742188	42170.343750
1446.676758	41829.515625
1445.611328	43976.121094
1444.545898	43757.085938
1443.479492	46449.113281
1442.414062	43943.085938
1441.347656	44772.308594
1440.281250	44567.347656
1439.214844	42379.437500
1438.147461	41725.011719
1437.081055	42207.246094
1436.013672	42033.339844
1434.946289	42358.406250
1433.878906	42257.128906
1432.811523	41774.230469
1431.743164	42035.953125
1430.675781	41841.160156
1429.607422	42428.066406
1428.539062	42186.472656
1427.469727	42202.292969
1426.401367	42278.921875
1425.332031	41705.406250
1424.262695	41623.101562
1423.193359	41945.242188
1422.124023	42096.648438
1421.053711	41899.804688
1419.984375	41838.542969
1418.914062	41732.917969
1417.843750	41643.679688
1416.772461	41785.652344
1415.702148	41845.855469
1414.630859	41567.554688
1413.559570	41387.378906
1412.488281	41491.953125
1411.416992	41801.800781
1410.345703	41796.625000
1409.273438	41453.273438
1408.201172	41639.367188
1407.128906	41391.750000
1406.056641	41335.363281
1404.983398	41691.503906
1403.911133	41504.589844
1402.837891	41494.800781
1401.764648	41571.199219
1400.691406	42048.136719
1399.617188	41407.234375
1398.542969	41246.140625
1397.469727	41469.160156
1396.395508	41626.937500
1395.320312	41831.191406
1394.246094	41721.312500
1393.170898	41420.738281
1392.096680	41513.289062
1391.020508	41184.957031
1389.945312	41651.789062
1388.870117	41495.542969
1387.793945	41278.933594
1386.717773	41510.824219
1385.641602	41240.855469
1384.565430	40852.527344
1383.489258	41706.714844
1382.412109	41290.578125
1381.334961	41399.214844
1380.257812	41352.312500
1379.180664	41597.808594
1378.103516	41441.835938
1377.025391	41362.468750
1375.947266	41169.484375
1374.869141	41141.203125
1373.791016	41052.652344
1372.712891	40878.367188
1371.633789	41315.988281
1370.555664	41285.378906
1369.476562	40988.351562
1368.396484	41340.003906
1367.317383	41142.656250
1366.237305	41278.808594
1365.158203	41039.867188
1364.078125	41064.882812
1362.997070	40897.800781
1361.916992	40980.675781
1360.835938	41063.519531
1359.755859	40776.250000
1358.674805	41037.164062
1357.593750	40694.507812
1356.511719	40839.750000
1355.430664	41149.050781
1354.348633	40554.656250
1353.266602	41090.324219
1352.184570	41343.960938
1351.101562	40759.089844
1350.019531	40869.515625
1348.936523	40633.574219
1347.853516	40582.390625
1346.770508	40969.750000
1345.686523	40553.917969
1344.603516	40913.449219
1343.519531	40477.015625
1342.435547	40476.636719
1341.351562	40702.238281
1340.267578	40720.261719
1339.182617	40768.242188
1338.097656	40488.937500
1337.012695	40396.375000
1335.927734	40656.339844
1334.842773	40743.449219
1333.756836	40611.734375
1332.670898	40685.003906
1331.584961	40534.925781
1330.499023	40430.941406
1329.413086	40902.332031
1328.326172	40432.460938
1327.239258	40758.742188
1326.152344	40422.468750
1325.065430	40146.109375
1323.978516	40182.550781
1322.890625	40453.464844
1321.803711	40195.632812
1320.715820	40307.875000
1319.626953	40652.140625
1318.539062	40362.242188
1317.450195	40589.230469
1316.362305	40464.789062
1315.273438	40530.953125
1314.183594	40183.890625
1313.094727	40236.308594
1312.004883	40430.980469
1310.916016	39925.812500
1309.826172	40418.675781
1308.735352	40154.503906
1307.645508	40472.867188
1306.554688	40520.582031
1305.464844	40130.457031
1304.374023	39453.992188
1303.282227	40294.691406
1302.191406	40234.718750
1301.099609	40124.371094
1300.008789	40055.289062
1298.916992	40093.843750
1297.824219	40077.441406
1296.732422	40017.554688
1295.639648	39605.253906
1294.546875	39980.210938
1293.454102	40384.769531
1292.361328	40144.167969
1291.268555	39558.332031
1290.174805	39846.132812
1289.081055	39793.207031
1287.987305	39571.164062
1286.893555	40082.753906
1285.799805	40052.660156
1284.705078	40086.535156
1283.610352	39805.210938
1282.515625	40024.082031
1281.420898	39692.636719
1280.325195	39847.531250
1279.230469	39730.773438
1278.134766	39851.375000
1277.039062	39376.457031
1275.942383	39754.835938
1274.846680	39535.542969
1273.750000	39608.199219
1272.653320	39430.042969
1271.556641	39557.394531
1270.459961	39472.750000
1269.363281	39151.156250
1268.265625	39508.582031
1267.167969	39442.210938
1266.070312	39437.347656
1264.972656	39166.082031
1263.874023	39168.097656
1262.775391	39297.574219
1261.676758	39320.042969
1260.578125	38935.222656
1259.479492	39012.343750
1258.379883	39105.359375
1257.281250	39232.449219
1256.181641	39193.511719
1255.082031	38972.726562
1253.981445	39202.042969
1252.881836	39006.332031
1251.781250	38656.191406
1250.680664	38799.113281
1249.580078	39205.445312
1248.479492	39087.070312
1247.377930	39132.207031
1246.276367	39170.519531
1245.174805	39074.906250
1244.073242	39036.058594
1242.971680	39210.484375
1241.869141	38883.542969
1240.766602	39021.640625
1239.664062	38710.722656
1238.561523	38823.863281
1237.458984	39100.160156
1236.355469	38959.363281
1235.251953	38900.183594
1234.148438	38983.750000
1233.044922	38686.757812
1231.941406	38711.445312
1230.836914	38867.449219
1229.732422	39143.375000
1228.627930	38749.238281
1227.523438	38868.937500
1226.417969	38703.503906
1225.313477	38850.312500
1224.208008	38687.203125
1223.102539	38447.269531
1221.996094	38826.910156
1220.890625	38528.261719
1219.784180	38489.628906
1218.677734	38740.250000
1217.571289	38834.886719
1216.464844	38821.062500
1215.357422	39118.910156
1214.250977	38560.843750
1213.143555	38522.238281
1212.036133	38880.917969
1210.927734	38758.761719
1209.820312	38880.339844
1208.711914	38365.679688
1207.603516	38936.148438
1206.495117	38728.367188
1205.386719	38367.335938
1204.277344	38313.023438
1203.167969	38795.175781
1202.058594	38576.296875
1200.949219	38558.023438
1199.839844	38377.562500
1198.729492	38712.941406
1197.619141	38359.117188
1196.508789	38800.195312
1195.398438	38414.964844
1194.288086	38459.750000
1193.176758	38862.312500
1192.065430	38895.750000
1190.954102	38497.273438
1189.842773	38712.933594
1188.730469	38577.726562
1187.619141	38312.167969
1186.506836	38577.191406
1185.394531	38767.949219
1184.281250	38767.644531
1183.168945	38335.988281
1182.055664	38501.976562
1180.942383	38782.437500
1179.829102	38606.980469
1178.715820	38256.480469
1177.601562	38779.242188
1176.488281	38352.531250
1175.374023	38401.652344
1174.258789	38488.886719
1173.144531	38154.417969
1172.029297	38275.300781
1170.915039	38366.992188
1169.799805	38268.101562
1168.684570	38019.082031
1167.568359	38225.046875
1166.453125	38587.769531
1165.336914	38092.414062
1164.220703	38074.285156
1163.103516	38105.421875
1161.987305	38226.101562
1160.870117	38319.875000
1159.752930	38344.230469
1158.635742	38185.093750
1157.518555	37871.644531
1156.401367	38283.031250
1155.283203	37933.890625
1154.165039	38164.000000
1153.046875	38020.679688
1151.928711	38136.691406
1150.809570	37950.964844
1149.690430	37778.710938
1148.571289	38035.437500
1147.452148	38041.914062
1146.333008	38090.812500
1145.212891	38173.183594
1144.093750	38016.664062
1142.973633	37987.417969
1141.852539	38103.230469
1140.732422	37540.738281
1139.611328	37806.046875
1138.490234	37571.667969
1137.369141	37274.933594
1136.248047	38017.250000
1135.126953	37809.703125
1134.004883	37887.500000
1132.882812	37423.800781
1131.760742	37731.105469
1130.638672	37779.914062
1129.515625	37481.281250
1128.393555	37336.398438
1127.270508	37643.488281
1126.147461	37814.691406
1125.023438	37465.082031
1123.900391	37204.597656
1122.776367	37471.437500
1121.652344	37495.742188
1120.528320	37319.894531
1119.403320	37568.777344
1118.279297	37795.339844
1117.154297	37375.042969
1116.029297	37654.886719
1114.904297	37343.632812
1113.778320	37498.980469
1112.653320	37345.554688
1111.527344	39463.816406
1110.401367	37451.812500
1109.274414	37413.902344
1108.148438	37473.652344
1107.021484	37502.316406
1105.894531	37031.796875
1104.767578	37333.355469
1103.640625	37444.082031
1102.512695	37175.601562
1101.385742	37410.457031
1100.257812	37210.789062
1099.128906	37137.511719
1098.000977	37219.359375
1096.872070	37329.972656
1095.744141	37394.031250
1094.615234	37172.394531
1093.485352	36957.484375
1092.356445	37362.476562
1091.226562	37415.410156
1090.096680	37366.531250
1088.966797	37114.121094
1087.836914	37383.847656
1086.706055	37264.218750
1085.576172	37228.664062
1084.445312	36958.769531
1083.314453	36978.542969
1082.182617	37208.257812
1081.051758	37358.339844
1079.919922	36989.199219
1078.788086	37117.175781
1077.656250	36757.042969
1076.523438	37183.093750
1075.391602	36871.644531
1074.258789	37056.929688
1073.125977	36727.960938
1071.993164	37061.031250
1070.859375	37338.828125
1069.726562	37287.886719
1068.592773	37109.062500
1067.458984	36903.843750
1066.324219	36844.187500
1065.190430	37333.347656
1064.055664	36960.722656
1062.920898	37039.882812
1061.786133	37072.757812
1060.650391	36568.238281
1059.515625	37360.859375
1058.379883	37188.906250
1057.244141	37142.480469
1056.108398	37173.093750
1054.971680	37021.066406
1053.835938	36939.492188
1052.699219	36670.984375
1051.562500	36659.875000
1050.424805	37607.417969
1049.288086	36989.394531
1048.150391	37266.156250
1047.012695	36967.058594
1045.875000	37015.218750
1044.737305	36911.785156
1043.598633	37003.859375
1042.459961	36929.007812
1041.321289	36573.156250
1040.182617	36794.750000
1039.043945	36849.460938
1037.904297	36974.371094
1036.764648	36906.167969
1035.625000	36895.019531
1034.485352	36910.191406
1033.344727	36763.093750
1032.205078	37045.742188
1031.064453	36471.246094
1029.923828	36913.824219
1028.782227	36836.941406
1027.641602	36527.871094
1026.500000	36681.070312
1025.358398	36985.312500
1024.216797	36934.742188
1023.074219	36663.089844
1021.932617	36557.875000
1020.790039	36391.425781
1019.647461	36413.195312
1018.503906	36793.707031
1017.361328	36539.816406
1016.217773	36548.421875
1015.074219	36677.269531
1013.930664	36320.796875
1012.787109	36858.324219
1011.642578	36914.929688
1010.498047	36611.039062
1009.353516	36634.902344
1008.208984	36671.859375
1007.064453	36492.632812
1005.918945	36664.953125
1004.773438	36448.683594
1003.627930	36653.675781
1002.482422	36699.316406
1001.335938	36387.171875
1000.189453	36565.886719
999.043945	36720.542969
997.896484	36360.597656
996.750000	36275.445312
995.602539	36576.093750
994.456055	36386.332031
993.308594	36604.058594
992.160156	36213.957031
991.012695	36492.609375
989.864258	36333.484375
988.715820	36481.382812
987.567383	36561.750000
986.418945	36424.457031
985.269531	36559.199219
984.121094	36243.562500
982.971680	36228.203125
981.821289	36404.222656
980.671875	36423.625000
979.521484	36556.058594
978.372070	36536.300781
977.221680	36553.488281
976.070312	36720.585938
974.919922	36494.437500
973.768555	36466.007812
972.617188	36526.621094
971.465820	36357.074219
970.314453	36272.246094
969.162109	36393.625000
968.009766	35987.671875
966.857422	36486.546875
965.705078	36336.679688
964.552734	36546.867188
963.399414	36646.390625
962.246094	36693.847656
961.092773	36127.882812
959.939453	36396.460938
958.785156	36632.437500
957.631836	36337.578125
956.477539	36222.597656
955.322266	36545.089844
954.167969	36246.078125
953.012695	36120.347656
951.858398	36559.550781
950.703125	36319.117188
949.546875	36608.835938
948.391602	36158.660156
947.235352	36372.601562
946.079102	36143.183594
944.922852	36177.609375
943.766602	36404.394531
942.609375	36404.171875
941.452148	36440.683594
940.294922	35902.535156
939.137695	36267.429688
937.980469	36256.433594
936.822266	36325.324219
935.664062	36281.937500
934.505859	36111.218750
933.347656	36005.300781
932.188477	36218.738281
931.030273	36225.011719
929.871094	36136.378906
928.710938	35972.308594
927.551758	36084.257812
926.391602	35741.339844
925.232422	35764.925781
924.071289	35997.515625
922.911133	36303.261719
921.750977	35820.542969
920.589844	36037.914062
919.428711	35699.679688
918.267578	35994.488281
917.105469	35940.500000
915.944336	35871.464844
914.782227	35987.492188
913.620117	36079.812500
912.458008	35795.707031
911.294922	35814.910156
910.132812	35812.605469
908.969727	35500.753906
907.806641	35672.589844
906.642578	35476.914062
905.479492	35453.183594
904.315430	35809.656250
903.151367	35478.757812
901.987305	35751.351562
900.822266	35708.261719
899.657227	35523.515625
898.493164	35205.785156
897.327148	35804.359375
896.162109	35585.371094
894.997070	35426.519531
893.831055	35533.636719
892.665039	35535.652344
891.499023	35713.449219
890.332031	35651.128906
889.165039	35631.691406
887.999023	35128.054688
886.831055	35804.894531
885.664062	35369.945312
884.497070	35616.085938
883.329102	35731.539062
882.161133	35530.152344
880.993164	35435.843750
879.824219	35198.210938
878.656250	35525.441406
877.487305	35461.128906
876.318359	35159.460938
875.148438	35561.343750
873.979492	35621.042969
872.809570	35687.132812
871.639648	35308.707031
870.469727	35233.812500
869.298828	35505.000000
868.128906	35295.539062
866.958008	35816.453125
865.787109	35427.671875
864.616211	35406.179688
863.444336	35442.316406
862.272461	35595.796875
861.100586	35552.949219
859.928711	35414.128906
858.756836	35371.324219
857.583984	35831.734375
856.411133	35432.855469
855.238281	35353.832031
854.065430	35300.410156
852.891602	35677.394531
851.718750	35839.082031
850.544922	35436.300781
849.370117	35602.230469
848.196289	35936.292969
847.021484	35310.203125
845.847656	35676.113281
844.671875	35326.925781
843.497070	35716.097656
842.322266	35481.886719
841.146484	35390.253906
839.970703	35236.988281
838.794922	35645.015625
837.618164	35279.203125
836.442383	35332.175781
835.265625	35833.441406
834.088867	35799.191406
832.911133	35308.304688
831.734375	35662.769531
830.556641	35772.937500
829.378906	35216.515625
828.201172	35797.886719
827.023438	35876.136719
825.844727	36064.675781
824.666016	35561.636719
823.487305	35743.796875
822.308594	35696.886719
821.128906	35437.992188
819.949219	35711.214844
818.769531	35532.941406
817.589844	35634.414062
816.410156	35441.386719
815.229492	35576.726562
814.048828	35457.898438
812.868164	35777.382812
811.687500	35565.414062
810.505859	35573.632812
809.324219	35641.101562
808.142578	35799.515625
806.960938	35691.343750
805.779297	35794.699219
804.596680	35234.058594
803.414062	35709.542969
802.231445	35531.707031
801.047852	35487.078125
799.865234	35442.460938
798.681641	35862.621094
797.498047	35716.566406
796.314453	35460.750000
795.129883	35485.839844
793.946289	35603.804688
792.761719	35844.136719
791.577148	35603.250000
790.391602	35354.015625
789.207031	35484.566406
788.021484	35794.332031
786.835938	35454.523438
785.649414	35222.359375
784.463867	35658.468750
783.277344	35339.945312
782.090820	35742.152344
780.904297	35866.128906
779.717773	35459.277344
778.530273	35406.363281
777.342773	35848.257812
776.155273	35622.667969
774.967773	35475.035156
773.779297	35426.359375
772.590820	35428.191406
771.402344	35339.574219
770.213867	35246.777344
769.025391	35273.871094
767.835938	35019.238281
766.646484	35447.839844
765.457031	35500.097656
764.267578	35468.285156
763.077148	35360.855469
761.886719	34959.402344
760.696289	35421.210938
759.505859	35273.949219
758.314453	35624.261719
757.124023	35426.644531
755.932617	35203.914062
754.741211	35258.210938
753.548828	35476.109375
752.357422	34913.726562
751.165039	35347.585938
749.972656	35307.464844
748.779297	35573.394531
747.586914	35262.894531
746.393555	34931.558594
745.200195	35394.328125
744.006836	35603.484375
742.813477	35240.847656
741.619141	35215.449219
740.424805	35156.558594
739.230469	35290.250000
738.036133	35137.195312
736.840820	35247.820312
735.645508	35218.250000
734.450195	35314.175781
733.254883	35324.332031
732.058594	34897.527344
730.863281	35428.234375
729.666992	35087.253906
728.470703	35341.910156
727.273438	34971.824219
726.077148	35243.109375
724.879883	35324.257812
723.682617	35079.652344
722.484375	35638.847656
721.287109	35047.800781
720.088867	35055.878906
718.890625	35043.085938
717.692383	35184.664062
716.493164	35261.535156
715.294922	35298.753906
714.095703	35240.054688
712.896484	35379.398438
711.696289	35297.777344
710.497070	34993.234375
709.296875	35624.199219
708.096680	35253.050781
706.895508	35094.453125
705.695312	35137.882812
704.494141	35422.773438
703.292969	35330.835938
702.091797	35305.519531
700.890625	35280.210938
699.688477	35602.296875
698.486328	35443.832031
697.284180	35193.933594
696.082031	35129.156250
694.878906	35132.996094
693.675781	35434.023438
692.472656	35344.296875
691.269531	34872.351562
690.065430	35266.718750
688.862305	35648.480469
687.658203	35396.824219
686.453125	35408.902344
685.249023	35259.082031
684.043945	35283.628906
682.838867	35295.714844
681.633789	35114.878906
680.428711	35228.617188
679.222656	35705.187500
678.017578	35140.828125
676.811523	35246.199219
675.604492	35146.355469
674.398438	35278.621094
673.191406	35230.597656
671.984375	35290.300781
670.777344	35130.464844
669.570312	35461.394531
668.362305	35587.253906
667.154297	35096.292969
665.946289	35178.718750
664.738281	35242.488281
663.529297	35130.406250
662.320312	35173.480469
661.111328	35113.144531
659.902344	35187.210938
658.692383	35327.390625
657.483398	35056.261719
656.273438	35312.121094
655.063477	35311.718750
653.852539	35086.175781
652.641602	35211.781250
651.431641	35221.718750
650.219727	35066.500000
649.008789	35179.652344
647.796875	35193.707031
646.585938	34733.230469
645.374023	35217.675781
644.161133	34965.664062
642.949219	35216.875000
641.736328	35255.640625
640.523438	35024.375000
639.310547	35157.957031
638.096680	34988.605469
636.883789	35251.925781
635.669922	34866.347656
634.456055	34843.347656
633.241211	35005.660156
632.027344	35124.679688
630.812500	35023.429688
629.597656	34681.457031
628.382812	34981.515625
627.166992	35042.847656
625.951172	34857.363281
624.735352	34797.375000
623.519531	35037.558594
622.303711	34813.121094
621.086914	34775.773438
619.870117	35015.824219
618.653320	34602.515625
617.435547	35138.265625
616.218750	35029.007812
615.000977	34712.421875
613.783203	35024.097656
612.564453	34680.945312
611.346680	34664.187500
610.127930	34969.535156
608.909180	34866.578125
607.690430	34899.007812
606.470703	34818.652344
605.250977	34742.425781
604.031250	34947.027344
602.811523	34811.371094
601.591797	34884.753906
600.371094	34906.894531
599.150391	34965.890625
597.929688	34705.414062
596.708984	34678.429688
595.487305	35171.394531
594.265625	35146.378906
593.043945	34777.605469
591.822266	34726.074219
590.599609	34735.925781
589.376953	35203.867188
588.154297	34792.414062
586.931641	34935.121094
585.708984	34812.062500
584.485352	34807.574219
583.261719	34711.144531
582.038086	35023.304688
580.813477	34804.324219
579.589844	34842.714844
578.365234	34650.386719
577.140625	35137.863281
575.915039	34653.707031
574.690430	35002.242188
573.464844	34610.097656
572.239258	34734.140625
571.012695	34841.820312
569.787109	34800.617188
568.560547	34559.644531
567.333984	34997.476562
566.107422	34944.035156
564.879883	34809.117188
563.652344	34918.687500
562.425781	34765.492188
561.197266	34881.136719
559.969727	34894.941406
558.741211	34847.675781
557.512695	34898.109375
556.284180	34858.996094
555.055664	34632.738281
553.826172	34691.316406
552.596680	34766.136719
551.367188	34556.285156
550.137695	34574.183594
548.907227	34498.578125
547.676758	34746.101562
546.446289	34587.195312
545.215820	34663.972656
543.985352	34531.539062
542.753906	34391.031250
541.522461	34429.226562
540.291016	34398.394531
539.058594	34184.929688
537.826172	34434.152344
536.593750	34303.929688
535.361328	34273.136719
534.128906	33818.535156
532.895508	34211.582031
531.662109	34290.285156
530.428711	34216.953125
529.195312	34060.562500
527.960938	34428.953125
526.726562	34021.414062
525.492188	34019.058594
524.257812	34160.468750
523.022461	34002.207031
521.788086	34273.097656
520.552734	34035.949219
519.316406	34009.308594
518.081055	34134.394531
516.844727	33721.437500
515.608398	33903.148438
514.372070	34084.785156
513.134766	33870.164062
511.898438	33825.386719
510.661133	33814.972656
509.423828	34000.527344
508.185547	33751.738281
506.947266	34013.968750
505.709961	33579.515625
504.470703	33678.160156
503.232422	33819.152344
501.993164	33992.378906
500.754883	33717.632812
499.515625	34094.546875
498.275391	33618.203125
497.036133	33908.281250
495.795898	34014.789062
494.555664	33740.289062
493.314453	34122.878906
492.074219	33969.359375
490.833008	34033.460938
489.591797	33888.066406
488.350586	34077.011719
487.108398	33686.027344
485.867188	33701.820312
484.625000	33918.863281
483.382812	33763.558594
482.139648	33873.878906
480.896484	33949.957031
479.653320	33609.707031
478.410156	34069.859375
477.166992	33808.113281
475.922852	33570.585938
474.678711	33823.488281
473.434570	33702.582031
472.190430	34013.617188
470.945312	33916.816406
469.700195	33797.960938
468.455078	33867.871094
467.209961	33578.445312
465.963867	33612.246094
464.718750	33710.238281
463.472656	33750.015625
462.225586	33743.644531
460.979492	33484.585938
459.732422	33412.097656
458.485352	33854.832031
457.238281	33613.933594
455.990234	33830.019531
454.742188	33673.363281
453.494141	33907.378906
452.246094	33598.554688
450.998047	33602.218750
449.749023	33577.847656
448.500000	33373.339844
447.250977	33437.078125
446.000977	33342.718750
444.751953	33546.468750
443.501953	33304.113281
442.251953	33231.828125
441.000977	33429.480469
439.750977	33379.179688
438.500000	33214.980469
437.249023	33208.699219
435.997070	32964.675781
434.746094	33268.050781
433.494141	33048.066406
432.242188	33135.664062
430.989258	33025.585938
429.737305	33356.656250
428.484375	33202.671875
427.231445	33050.738281
425.978516	32793.136719
424.724609	33086.101562
423.470703	33105.761719
422.216797	32908.101562
420.962891	32953.703125
419.708008	32817.921875
418.454102	33148.457031
417.199219	32795.539062
415.943359	33070.175781
414.688477	32872.738281
413.432617	32848.593750
412.176758	32728.906250
410.920898	32877.953125
409.664062	33092.609375
408.408203	32839.636719
407.151367	33052.226562
405.893555	32674.060547
404.636719	32995.960938
403.378906	32987.722656
402.121094	32679.347656
400.863281	32681.105469
399.605469	32778.234375
398.346680	32712.427734
397.087891	32720.130859
395.829102	32777.476562
394.570312	32717.658203
393.310547	32693.591797
392.050781	32826.320312
390.791016	32835.972656
389.531250	32867.441406
388.270508	32605.335938
387.009766	32966.039062
385.749023	32826.941406
384.488281	32721.597656
383.226562	32772.871094
381.964844	32479.316406
380.703125	32520.707031
379.441406	32492.748047
378.178711	32512.332031
376.916016	32490.324219
375.653320	32648.480469
374.390625	32282.037109
373.126953	32357.050781
371.864258	32523.054688
370.599609	32510.947266
369.335938	32214.027344
368.072266	32660.765625
366.807617	32308.566406
365.542969	32753.138672
364.277344	32792.378906
363.012695	32896.808594
361.747070	32736.464844
360.481445	33241.843750
359.215820	33436.972656
357.949219	33738.648438
356.683594	33588.128906
355.416992	33627.148438
354.149414	34220.671875
352.882812	34472.640625
351.615234	34523.296875
350.347656	34798.773438
349.080078	35082.035156
347.811523	35873.835938
346.543945	36286.875000
345.275391	36650.484375
344.005859	36720.367188
342.737305	36134.199219
341.467773	35424.167969
340.198242	34387.503906
338.928711	33811.953125
337.659180	33207.093750
336.388672	32840.609375
335.118164	32594.296875
333.847656	32397.261719
332.576172	32493.388672
331.305664	32261.042969
330.034180	32121.201172
328.761719	31792.683594
327.490234	31654.947266
326.217773	31684.298828
324.945312	31715.603516
323.672852	31737.072266
322.400391	31725.140625
321.126953	31870.308594
319.853516	31715.033203
318.580078	31467.560547
317.305664	31708.853516
316.032227	31722.441406
314.757812	31953.781250
313.483398	31841.781250
312.208008	31531.757812
310.933594	31486.542969
309.658203	31641.292969
308.382812	31645.068359
307.106445	31629.246094
305.830078	31490.000000
304.554688	31664.214844
303.277344	31754.148438
302.000977	31577.748047
300.723633	31501.257812
299.446289	31802.556641
298.168945	31933.484375
296.891602	31770.875000
295.613281	32075.859375
294.334961	32271.199219
293.056641	32222.029297
291.778320	32341.015625
290.499023	32346.582031
289.219727	32379.503906
287.940430	32570.683594
286.661133	32447.259766
285.380859	32396.150391
284.100586	32155.632812
282.820312	32362.324219
281.539062	31971.587891
280.258789	31813.257812
278.977539	32037.453125
277.696289	31641.144531
276.414062	31531.728516
275.132812	31512.062500
273.850586	31745.886719
272.568359	31652.105469
271.285156	31827.335938
270.002930	32051.218750
268.719727	32202.921875
267.435547	32691.574219
266.152344	33098.238281
264.868164	34065.554688
263.583984	35044.187500
262.299805	36785.480469
261.015625	38940.640625
259.730469	41585.312500
258.445312	45001.300781
257.160156	49052.011719
255.875000	51310.132812
254.588867	52115.000000
253.302734	50240.820312
252.016602	46966.054688
250.730469	43632.292969
249.443359	40391.117188
248.156250	38034.988281
246.869141	36147.796875
245.581055	34713.742188
244.293945	33602.496094
243.005859	33019.609375
241.717773	32318.570312
240.428711	32038.824219
239.139648	31439.109375
237.850586	31289.580078
236.561523	30628.183594
235.272461	30461.414062
233.982422	30459.468750
232.692383	30137.753906
231.402344	30054.488281
230.112305	30122.359375
228.821289	30093.357422
227.530273	29551.189453
226.239258	29593.943359
224.947266	29530.210938
223.655273	29271.025391
222.363281	28950.017578
221.071289	28923.199219
219.779297	29244.562500
218.486328	28740.017578
217.193359	29055.488281
215.900391	28671.025391
214.606445	28864.621094
213.313477	28540.244141
212.019531	28876.759766
210.724609	28531.253906
209.430664	28492.960938
208.135742	28448.888672
206.840820	28395.179688
205.545898	28650.324219
204.250000	28036.935547
202.954102	27840.548828
201.658203	27821.714844
200.362305	28026.621094
199.066406	28003.900391
197.769531	28031.312500
196.472656	27784.990234
195.174805	27625.488281
193.877930	27941.988281
192.580078	27576.375000
191.282227	27653.917969
189.984375	27396.341797
188.685547	27781.953125
187.386719	27335.792969
186.087891	27528.796875
184.789062	27508.128906
183.489258	27322.005859
182.189453	27276.373047
180.889648	27340.380859
179.589844	27287.070312
178.289062	27093.437500
176.988281	26999.826172
175.687500	27286.753906
174.386719	27310.343750
173.084961	27347.369141
171.783203	27090.521484
170.481445	27384.886719
169.179688	27189.566406
167.876953	27295.683594
166.574219	27027.523438
165.271484	27018.501953
163.968750	26838.742188
162.665039	26881.544922
161.361328	27014.460938
160.057617	26855.890625
158.752930	26793.230469
157.449219	26400.937500
156.144531	26572.164062
154.838867	26379.310547
153.534180	26475.767578
152.228516	26401.742188
150.922852	26429.224609
149.617188	26462.437500
148.310547	26369.312500
147.004883	26262.826172
145.698242	26208.039062
144.390625	26291.000000
143.083984	26454.253906
141.776367	26275.166016
140.468750	26170.705078
139.161133	25871.316406
137.852539	25916.035156
136.543945	26060.089844
135.235352	25552.666016
133.926758	25893.460938
132.617188	24981.423828
131.308594	25278.283203
129.998047	25114.988281
128.688477	24392.564453
127.377930	24122.646484
126.068359	23812.765625
124.756836	23373.300781
123.446289	23117.078125
122.134766	22672.193359
120.823242	22275.136719
119.511719	21487.513672
