#Wave		#Intensity
1698.992188	34193.179688
1697.971680	34082.937500
1696.951172	34165.085938
1695.930664	33909.238281
1694.909180	33876.300781
1693.887695	33985.367188
1692.867188	34246.152344
1691.844727	33995.363281
1690.823242	34275.625000
1689.801758	34509.308594
1688.779297	34280.613281
1687.756836	34497.085938
1686.734375	34434.742188
1685.711914	34137.726562
1684.689453	34190.339844
1683.666016	34340.691406
1682.643555	34349.269531
1681.620117	34426.246094
1680.596680	34217.417969
1679.572266	34287.062500
1678.548828	34261.453125
1677.524414	34169.941406
1676.500000	34224.906250
1675.475586	34016.292969
1674.451172	33976.105469
1673.426758	34272.585938
1672.401367	34368.953125
1671.375977	34416.511719
1670.350586	34195.851562
1669.325195	33928.949219
1668.299805	33810.816406
1667.274414	34184.980469
1666.248047	33986.441406
1665.221680	34224.019531
1664.195312	34259.359375
1663.168945	33863.656250
1662.141602	33787.042969
1661.115234	34165.675781
1660.087891	33989.246094
1659.060547	34124.359375
1658.033203	34045.316406
1657.004883	33920.082031
1655.977539	33970.003906
1654.949219	33788.894531
1653.920898	34205.945312
1652.892578	34095.351562
1651.863281	34118.468750
1650.834961	34005.496094
1649.805664	33839.109375
1648.776367	33667.925781
1647.747070	33960.683594
1646.717773	34127.066406
1645.688477	33841.804688
1644.658203	33823.664062
1643.627930	33997.257812
1642.597656	34032.476562
1641.567383	34155.019531
1640.537109	34020.394531
1639.505859	33531.730469
1638.474609	33719.761719
1637.444336	33546.492188
1636.412109	33988.972656
1635.380859	33626.675781
1634.349609	34153.792969
1633.317383	33668.035156
1632.285156	33473.121094
1631.252930	34072.632812
1630.220703	33611.359375
1629.187500	33920.117188
1628.155273	33466.292969
1627.122070	33387.746094
1626.088867	33226.953125
1625.055664	33862.152344
1624.021484	33594.902344
1622.988281	33666.324219
1621.954102	33628.910156
1620.919922	33313.492188
1619.885742	33486.437500
1618.851562	33548.152344
1617.816406	33873.214844
1616.782227	33468.585938
1615.747070	33366.023438
1614.711914	33746.484375
1613.675781	33412.113281
1612.640625	33362.718750
1611.604492	33622.292969
1610.568359	33389.468750
1609.532227	33501.761719
1608.496094	33399.308594
1607.459961	33381.312500
1606.422852	33546.593750
1605.385742	33571.972656
1604.349609	33462.343750
1603.311523	33434.699219
1602.274414	33354.050781
1601.237305	33203.554688
1600.199219	33221.738281
1599.161133	33709.574219
1598.123047	33299.019531
1597.084961	33365.328125
1596.045898	33344.945312
1595.006836	32994.839844
1593.968750	33176.667969
1592.929688	33264.597656
1591.889648	33400.601562
1590.850586	33421.113281
1589.810547	33655.632812
1588.771484	33375.558594
1587.731445	33256.640625
1586.690430	33507.882812
1585.650391	33444.246094
1584.610352	33286.933594
1583.569336	33744.613281
1582.528320	33440.800781
1581.487305	33511.683594
1580.445312	33820.222656
1579.404297	33403.734375
1578.362305	33486.585938
1577.320312	33384.640625
1576.278320	33210.757812
1575.236328	33300.792969
1574.194336	33858.449219
1573.151367	33135.468750
1572.108398	33297.382812
1571.065430	33394.523438
1570.022461	33422.125000
1568.979492	33032.792969
1567.935547	33534.792969
1566.891602	33617.441406
1565.847656	33549.183594
1564.803711	33006.859375
1563.759766	33781.414062
1562.714844	33282.324219
1561.669922	33262.031250
1560.625977	33349.417969
1559.580078	33680.785156
1558.535156	33241.855469
1557.490234	33592.253906
1556.444336	33347.164062
1555.398438	33353.171875
1554.352539	33457.171875
1553.306641	33771.425781
1552.259766	33409.402344
1551.213867	33338.945312
1550.166992	33598.117188
1549.120117	33262.578125
1548.073242	33528.832031
1547.025391	33267.425781
1545.978516	33244.781250
1544.930664	33458.394531
1543.882812	33364.148438
1542.834961	33661.148438
1541.786133	33266.382812
1540.738281	33434.523438
1539.689453	33707.503906
1538.640625	33601.371094
1537.591797	33917.125000
1536.542969	33203.351562
1535.493164	33273.664062
1534.443359	33641.707031
1533.393555	33399.921875
1532.343750	33003.445312
1531.293945	33268.960938
1530.244141	33527.238281
1529.193359	33176.164062
1528.142578	33236.867188
1527.091797	33556.867188
1526.041016	33246.406250
1524.989258	33735.140625
1523.938477	33082.355469
1522.886719	33364.109375
1521.834961	33400.937500
1520.783203	33566.082031
1519.730469	33403.261719
1518.678711	33599.230469
1517.625977	33141.929688
1516.573242	33107.507812
1515.520508	33453.007812
1514.466797	33081.437500
1513.414062	33267.785156
1512.360352	33340.152344
1511.306641	32940.324219
1510.252930	33233.347656
1509.199219	32990.222656
1508.144531	33285.496094
1507.090820	33087.496094
1506.036133	33207.222656
1504.981445	33033.003906
1503.925781	33354.125000
1502.871094	33251.019531
1501.815430	33091.097656
1500.759766	33025.968750
1499.704102	33095.839844
1498.648438	33130.171875
1497.592773	33050.863281
1496.536133	33016.554688
1495.479492	32901.796875
1494.422852	33028.402344
1493.366211	33039.054688
1492.308594	32862.859375
1491.251953	32885.355469
1490.194336	33089.890625
1489.136719	32849.953125
1488.079102	32962.246094
1487.020508	32982.339844
1485.962891	33259.945312
1484.904297	33048.488281
1483.845703	32669.423828
1482.787109	32833.589844
1481.728516	32832.437500
1480.668945	33119.253906
1479.609375	32565.802734
1478.549805	32305.136719
1477.490234	32681.539062
1476.430664	32692.199219
1475.370117	32764.171875
1474.310547	32482.431641
1473.250000	32825.523438
1472.189453	32956.351562
1471.127930	32778.417969
1470.067383	32638.244141
1469.005859	32849.132812
1467.944336	32998.703125
1466.882812	32488.833984
1465.821289	32643.121094
1464.759766	32790.289062
1463.697266	32702.037109
1462.634766	32550.277344
1461.572266	32490.330078
1460.509766	32606.833984
1459.446289	32629.216797
1458.383789	32668.048828
1457.320312	32652.791016
1456.256836	32771.527344
1455.193359	32575.279297
1454.128906	32675.185547
1453.065430	32460.226562
1452.000977	32534.275391
1450.936523	32786.792969
1449.872070	32825.531250
1448.806641	32441.652344
1447.742188	32269.173828
1446.676758	32519.203125
1445.611328	31945.515625
1444.545898	32650.654297
1443.479492	32332.824219
1442.414062	32235.560547
1441.347656	32611.988281
1440.281250	32467.818359
1439.214844	32410.425781
1438.147461	32367.115234
1437.081055	32291.013672
1436.013672	32346.132812
1434.946289	32593.298828
1433.878906	32444.595703
1432.811523	32192.919922
1431.743164	32432.953125
1430.675781	32431.814453
1429.607422	32081.982422
1428.539062	32537.164062
1427.469727	31953.500000
1426.401367	32300.945312
1425.332031	31902.273438
1424.262695	32106.978516
1423.193359	32056.796875
1422.124023	32245.037109
1421.053711	32229.900391
1419.984375	32147.009766
1418.914062	32416.888672
1417.843750	32172.835938
1416.772461	32043.294922
1415.702148	31997.847656
1414.630859	32220.867188
1413.559570	32250.087891
1412.488281	31968.943359
1411.416992	31988.863281
1410.345703	32258.371094
1409.273438	32054.335938
1408.201172	32195.482422
1407.128906	32240.988281
1406.056641	32032.398438
1404.983398	32101.220703
1403.911133	32307.496094
1402.837891	31991.835938
1401.764648	32309.861328
1400.691406	32031.574219
1399.617188	31986.232422
1398.542969	31880.376953
1397.469727	31704.728516
1396.395508	31899.167969
1395.320312	31786.400391
1394.246094	31866.761719
1393.170898	32142.474609
1392.096680	31687.865234
1391.020508	31958.855469
1389.945312	31634.625000
1388.870117	32189.087891
1387.793945	32190.271484
1386.717773	31677.968750
1385.641602	31765.191406
1384.565430	32038.191406
1383.489258	31816.462891
1382.412109	31768.947266
1381.334961	31616.986328
1380.257812	31766.800781
1379.180664	31505.826172
1378.103516	31460.714844
1377.025391	31710.220703
1375.947266	31822.796875
1374.869141	31664.025391
1373.791016	31676.873047
1372.712891	31379.101562
1371.633789	31278.429688
1370.555664	31682.943359
1369.476562	31654.070312
1368.396484	31856.843750
1367.317383	31654.253906
1366.237305	31667.078125
1365.158203	31672.951172
1364.078125	31491.332031
1362.997070	31578.232422
1361.916992	31822.441406
1360.835938	31805.142578
1359.755859	31586.615234
1358.674805	31372.791016
1357.593750	31667.724609
1356.511719	31576.484375
1355.430664	31547.681641
1354.348633	31678.343750
1353.266602	31291.400391
1352.184570	31530.632812
1351.101562	31522.640625
1350.019531	31482.320312
1348.936523	31548.222656
1347.853516	31558.695312
1346.770508	31474.535156
1345.686523	31473.476562
1344.603516	31647.763672
1343.519531	31429.835938
1342.435547	31313.462891
1341.351562	31469.234375
1340.267578	31537.337891
1339.182617	31667.652344
1338.097656	31369.246094
1337.012695	31280.634766
1335.927734	31295.728516
1334.842773	31522.732422
1333.756836	31143.955078
1332.670898	31115.310547
1331.584961	31238.623047
1330.499023	31472.373047
1329.413086	31344.722656
1328.326172	31081.359375
1327.239258	31795.822266
1326.152344	31244.955078
1325.065430	31418.695312
1323.978516	31341.746094
1322.890625	31356.781250
1321.803711	31321.242188
1320.715820	31400.617188
1319.626953	31195.054688
1318.539062	31111.318359
1317.450195	31202.167969
1316.362305	31081.714844
1315.273438	31147.279297
1314.183594	30923.576172
1313.094727	31335.710938
1312.004883	31011.083984
1310.916016	31161.498047
1309.826172	31288.917969
1308.735352	30948.416016
1307.645508	31073.533203
1306.554688	30898.261719
1305.464844	30865.173828
1304.374023	31155.246094
1303.282227	31009.841797
1302.191406	31100.460938
1301.099609	31310.158203
1300.008789	30777.759766
1298.916992	31074.447266
1297.824219	30775.794922
1296.732422	31008.283203
1295.639648	30750.941406
1294.546875	31068.007812
1293.454102	30849.634766
1292.361328	30832.623047
1291.268555	30758.443359
1290.174805	30675.142578
1289.081055	30715.318359
1287.987305	30570.341797
1286.893555	30688.216797
1285.799805	30831.179688
1284.705078	30681.687500
1283.610352	30703.546875
1282.515625	30835.009766
1281.420898	30598.833984
1280.325195	30922.013672
1279.230469	30619.718750
1278.134766	30634.716797
1277.039062	30581.263672
1275.942383	30653.287109
1274.846680	30579.322266
1273.750000	30763.050781
1272.653320	30570.537109
1271.556641	30293.751953
1270.459961	30757.750000
1269.363281	30449.126953
1268.265625	30370.712891
1267.167969	30287.771484
1266.070312	30273.179688
1264.972656	30363.333984
1263.874023	30681.107422
1262.775391	30395.587891
1261.676758	30362.775391
1260.578125	30225.310547
1259.479492	30460.976562
1258.379883	30214.365234
1257.281250	30302.130859
1256.181641	30403.505859
1255.082031	30072.923828
1253.981445	30212.939453
1252.881836	30166.562500
1251.781250	30167.914062
1250.680664	30146.548828
1249.580078	30184.240234
1248.479492	30664.718750
1247.377930	29823.666016
1246.276367	30138.326172
1245.174805	30151.021484
1244.073242	30245.400391
1242.971680	30219.500000
1241.869141	30164.121094
1240.766602	30031.650391
1239.664062	30153.187500
1238.561523	30215.734375
1237.458984	29840.789062
1236.355469	30474.464844
1235.251953	30400.964844
1234.148438	30073.759766
1233.044922	30122.667969
1231.941406	30065.119141
1230.836914	30084.574219
1229.732422	30094.964844
1228.627930	30180.042969
1227.523438	30036.527344
1226.417969	30074.068359
1225.313477	29964.552734
1224.208008	29907.097656
1223.102539	29917.500000
1221.996094	30011.554688
1220.890625	30003.847656
1219.784180	30360.021484
1218.677734	29950.027344
1217.571289	30030.445312
1216.464844	30115.349609
1215.357422	29931.464844
1214.250977	30142.806641
1213.143555	29956.724609
1212.036133	30111.550781
1210.927734	30031.609375
1209.820312	30136.720703
1208.711914	30079.361328
1207.603516	29830.294922
1206.495117	30436.035156
1205.386719	30033.667969
1204.277344	29933.529297
1203.167969	29901.046875
1202.058594	29918.152344
1200.949219	29980.312500
1199.839844	29963.603516
1198.729492	30217.177734
1197.619141	29777.068359
1196.508789	29996.810547
1195.398438	29845.039062
1194.288086	29961.154297
1193.176758	29802.691406
1192.065430	29889.519531
1190.954102	29915.580078
1189.842773	29910.144531
1188.730469	29688.837891
1187.619141	29746.392578
1186.506836	30035.451172
1185.394531	29998.527344
1184.281250	29873.984375
1183.168945	29962.910156
1182.055664	29678.935547
1180.942383	30053.076172
1179.829102	29778.166016
1178.715820	29831.121094
1177.601562	29648.376953
1176.488281	29773.144531
1175.374023	29817.091797
1174.258789	30013.570312
1173.144531	29712.044922
1172.029297	29796.339844
1170.915039	29589.130859
1169.799805	29852.751953
1168.684570	29791.287109
1167.568359	29871.021484
1166.453125	29796.130859
1165.336914	29544.300781
1164.220703	29680.023438
1163.103516	29909.744141
1161.987305	29852.806641
1160.870117	29923.480469
1159.752930	29765.847656
1158.635742	29277.103516
1157.518555	29233.740234
1156.401367	29655.648438
1155.283203	29773.251953
1154.165039	29714.167969
1153.046875	29523.203125
1151.928711	29553.589844
1150.809570	29729.224609
1149.690430	29614.326172
1148.571289	29597.763672
1147.452148	29596.839844
1146.333008	29676.308594
1145.212891	29356.085938
1144.093750	29408.779297
1142.973633	29340.927734
1141.852539	29701.550781
1140.732422	29319.082031
1139.611328	29826.802734
1138.490234	32167.644531
1137.369141	29320.896484
1136.248047	29322.240234
1135.126953	29372.623047
1134.004883	29398.470703
1132.882812	29303.982422
1131.760742	29543.705078
1130.638672	29159.652344
1129.515625	29140.972656
1128.393555	29046.593750
1127.270508	29228.302734
1126.147461	29133.939453
1125.023438	29190.939453
1123.900391	28980.914062
1122.776367	29304.871094
1121.652344	29157.177734
1120.528320	29114.054688
1119.403320	28937.542969
1118.279297	28858.904297
1117.154297	29171.470703
1116.029297	29012.818359
1114.904297	29031.964844
1113.778320	28951.140625
1112.653320	29283.445312
1111.527344	29158.191406
1110.401367	28968.595703
1109.274414	28874.519531
1108.148438	28982.435547
1107.021484	29092.531250
1105.894531	29184.835938
1104.767578	29259.361328
1103.640625	29455.833984
1102.512695	29095.683594
1101.385742	29114.757812
1100.257812	28916.605469
1099.128906	28997.753906
1098.000977	29054.498047
1096.872070	28900.767578
1095.744141	29303.029297
1094.615234	29045.224609
1093.485352	29004.494141
1092.356445	29205.068359
1091.226562	29060.296875
1090.096680	28922.216797
1088.966797	29091.716797
1087.836914	28783.349609
1086.706055	28899.730469
1085.576172	29022.703125
1084.445312	28783.048828
1083.314453	28793.261719
1082.182617	29238.847656
1081.051758	29145.119141
1079.919922	28967.470703
1078.788086	29127.837891
1077.656250	28943.630859
1076.523438	29039.908203
1075.391602	28820.460938
1074.258789	29093.300781
1073.125977	29015.156250
1071.993164	28866.433594
1070.859375	28989.103516
1069.726562	28829.408203
1068.592773	29044.656250
1067.458984	28929.103516
1066.324219	28745.255859
1065.190430	28836.974609
1064.055664	29023.410156
1062.920898	28775.750000
1061.786133	28750.660156
1060.650391	29163.851562
1059.515625	29189.341797
1058.379883	28855.966797
1057.244141	29260.103516
1056.108398	28750.773438
1054.971680	28523.275391
1053.835938	28975.646484
1052.699219	28972.541016
1051.562500	28841.886719
1050.424805	29113.648438
1049.288086	28932.451172
1048.150391	29012.873047
1047.012695	28728.472656
1045.875000	28569.412109
1044.737305	28909.068359
1043.598633	28659.980469
1042.459961	29080.744141
1041.321289	28557.271484
1040.182617	28525.699219
1039.043945	28799.205078
1037.904297	28815.871094
1036.764648	28806.205078
1035.625000	28445.576172
1034.485352	28753.980469
1033.344727	28665.388672
1032.205078	28754.406250
1031.064453	28437.884766
1029.923828	28724.144531
1028.782227	28615.896484
1027.641602	28437.585938
1026.500000	28756.539062
1025.358398	28595.785156
1024.216797	28783.218750
1023.074219	28802.021484
1021.932617	28779.230469
1020.790039	28401.943359
1019.647461	28840.878906
1018.503906	28584.027344
1017.361328	28605.031250
1016.217773	28617.279297
1015.074219	28660.128906
1013.930664	28608.968750
1012.787109	28509.744141
1011.642578	28526.365234
1010.498047	28422.820312
1009.353516	28504.976562
1008.208984	28593.654297
1007.064453	28616.792969
1005.918945	28615.908203
1004.773438	28191.582031
1003.627930	28481.015625
1002.482422	28595.792969
1001.335938	28640.718750
1000.189453	28417.353516
999.043945	28429.582031
997.896484	28529.015625
996.750000	28558.656250
995.602539	28583.925781
994.456055	28617.902344
993.308594	28349.025391
992.160156	28352.533203
991.012695	28384.349609
989.864258	28383.492188
988.715820	28548.091797
987.567383	28353.476562
986.418945	28613.775391
985.269531	28373.523438
984.121094	28655.474609
982.971680	28478.378906
981.821289	28377.460938
980.671875	28535.318359
979.521484	28382.250000
978.372070	28579.167969
977.221680	28319.664062
976.070312	28559.974609
974.919922	28585.136719
973.768555	28562.507812
972.617188	28257.591797
971.465820	28232.857422
970.314453	28577.148438
969.162109	28387.417969
968.009766	28412.578125
966.857422	28366.132812
965.705078	28445.511719
964.552734	28368.712891
963.399414	28519.613281
962.246094	28340.935547
961.092773	28205.673828
959.939453	28245.994141
958.785156	28513.802734
957.631836	28447.900391
956.477539	28119.947266
955.322266	28342.150391
954.167969	28332.605469
953.012695	28424.804688
951.858398	28651.154297
950.703125	28327.787109
949.546875	28515.126953
948.391602	28451.472656
947.235352	28115.339844
946.079102	28358.832031
944.922852	28461.707031
943.766602	28374.330078
942.609375	28347.494141
941.452148	28333.632812
940.294922	28168.550781
939.137695	28087.765625
937.980469	28227.281250
936.822266	28152.990234
935.664062	28430.599609
934.505859	28257.013672
933.347656	28245.333984
932.188477	28240.130859
931.030273	28047.255859
929.871094	28326.781250
928.710938	28082.205078
927.551758	28186.986328
926.391602	28408.125000
925.232422	28118.408203
924.071289	28380.417969
922.911133	28101.582031
921.750977	28133.019531
920.589844	28201.056641
919.428711	28357.345703
918.267578	28093.785156
917.105469	28222.052734
915.944336	28102.794922
914.782227	27972.820312
913.620117	27997.779297
912.458008	27904.433594
911.294922	28262.705078
910.132812	28098.392578
908.969727	27968.533203
907.806641	27836.570312
906.642578	28158.054688
905.479492	27880.011719
904.315430	27900.644531
903.151367	27878.316406
901.987305	27911.822266
900.822266	27805.771484
899.657227	27916.546875
898.493164	27947.878906
897.327148	28030.691406
896.162109	27699.441406
894.997070	27996.751953
893.831055	27732.105469
892.665039	27692.681641
891.499023	27694.000000
890.332031	28006.089844
889.165039	27868.060547
887.999023	27646.525391
886.831055	27911.322266
885.664062	28120.337891
884.497070	27530.572266
883.329102	27677.490234
882.161133	27719.468750
880.993164	27789.251953
879.824219	27638.619141
878.656250	27823.912109
877.487305	27716.103516
876.318359	27608.333984
875.148438	27434.320312
873.979492	27728.533203
872.809570	27614.406250
871.639648	27874.283203
870.469727	27623.429688
869.298828	27825.529297
868.128906	27771.263672
866.958008	27699.935547
865.787109	28034.273438
864.616211	27945.843750
863.444336	27904.394531
862.272461	27875.763672
861.100586	27962.345703
859.928711	27718.279297
858.756836	28062.900391
857.583984	27780.523438
856.411133	27858.525391
855.238281	28019.623047
854.065430	27792.814453
852.891602	27853.722656
851.718750	27884.783203
850.544922	27696.458984
849.370117	27880.855469
848.196289	27867.179688
847.021484	27768.361328
845.847656	27986.691406
844.671875	27841.072266
843.497070	28038.029297
842.322266	27971.154297
841.146484	27746.927734
839.970703	27801.328125
838.794922	27849.328125
837.618164	27788.910156
836.442383	27902.771484
835.265625	27869.982422
834.088867	28075.130859
832.911133	27921.255859
831.734375	27996.781250
830.556641	28157.201172
829.378906	28086.179688
828.201172	27923.923828
827.023438	27967.556641
825.844727	27777.796875
824.666016	27882.953125
823.487305	28159.851562
822.308594	27862.019531
821.128906	27608.816406
819.949219	27775.388672
818.769531	27933.421875
817.589844	27987.572266
816.410156	28026.871094
815.229492	28131.814453
814.048828	27916.953125
812.868164	27932.949219
811.687500	28003.978516
810.505859	27903.544922
809.324219	27872.978516
808.142578	27575.845703
806.960938	27674.380859
805.779297	28111.263672
804.596680	27922.087891
803.414062	28043.755859
802.231445	28163.263672
801.047852	27803.000000
799.865234	28184.511719
798.681641	27807.474609
797.498047	27865.679688
796.314453	27691.568359
795.129883	27973.576172
793.946289	28048.603516
792.761719	27975.859375
791.577148	28002.320312
790.391602	27815.679688
789.207031	27831.611328
788.021484	27965.640625
786.835938	27817.062500
785.649414	27809.789062
784.463867	28038.597656
783.277344	27828.968750
782.090820	27830.123047
780.904297	27915.541016
779.717773	27805.042969
778.530273	27679.843750
777.342773	27897.886719
776.155273	27795.869141
774.967773	27847.533203
773.779297	27591.945312
772.590820	27755.134766
771.402344	27735.253906
770.213867	27978.273438
769.025391	27661.865234
767.835938	27822.812500
766.646484	28011.025391
765.457031	27663.259766
764.267578	27603.486328
763.077148	27831.546875
761.886719	27641.535156
760.696289	27751.900391
759.505859	27757.238281
758.314453	27842.345703
757.124023	27671.359375
755.932617	27735.462891
754.741211	27539.380859
753.548828	27895.062500
752.357422	27592.058594
751.165039	27725.322266
749.972656	27449.714844
748.779297	27817.720703
747.586914	27703.566406
746.393555	27729.843750
745.200195	27586.417969
744.006836	27595.947266
742.813477	27777.193359
741.619141	27774.119141
740.424805	27601.478516
739.230469	27717.736328
738.036133	27700.023438
736.840820	27975.226562
735.645508	27616.498047
734.450195	27638.544922
733.254883	27694.041016
732.058594	27454.730469
730.863281	27577.125000
729.666992	27559.451172
728.470703	27602.378906
727.273438	27756.011719
726.077148	27681.914062
724.879883	27699.730469
723.682617	27671.603516
722.484375	27741.601562
721.287109	27636.250000
720.088867	27641.535156
718.890625	27590.486328
717.692383	27785.601562
716.493164	27717.855469
715.294922	27683.498047
714.095703	27688.763672
712.896484	27593.972656
711.696289	27745.134766
710.497070	27748.296875
709.296875	27830.623047
708.096680	27692.130859
706.895508	27603.667969
705.695312	27631.835938
704.494141	27920.207031
703.292969	27844.236328
702.091797	27662.162109
700.890625	27723.582031
699.688477	27678.888672
698.486328	27704.923828
697.284180	27965.919922
696.082031	27642.615234
694.878906	27762.175781
693.675781	27607.363281
692.472656	27803.765625
691.269531	27418.400391
690.065430	27635.533203
688.862305	28029.101562
687.658203	27552.548828
686.453125	27561.939453
685.249023	27911.710938
684.043945	27672.009766
682.838867	27436.546875
681.633789	27925.125000
680.428711	27880.505859
679.222656	27808.945312
678.017578	27530.091797
676.811523	27719.794922
675.604492	27729.126953
674.398438	27792.326172
673.191406	27540.609375
671.984375	27705.308594
670.777344	27592.449219
669.570312	27759.146484
668.362305	27830.554688
667.154297	27734.287109
665.946289	27625.640625
664.738281	27738.408203
663.529297	27538.781250
662.320312	27819.042969
661.111328	27743.539062
659.902344	27641.187500
658.692383	27826.187500
657.483398	27763.121094
656.273438	27594.697266
655.063477	27775.466797
653.852539	27739.292969
652.641602	27812.580078
651.431641	27764.021484
650.219727	27690.707031
649.008789	27623.611328
647.796875	27845.435547
646.585938	27848.480469
645.374023	27537.982422
644.161133	27499.833984
642.949219	27513.248047
641.736328	27493.669922
640.523438	27439.056641
639.310547	27545.208984
638.096680	27472.060547
636.883789	27751.208984
635.669922	27610.078125
634.456055	27454.582031
633.241211	27402.089844
632.027344	27244.628906
630.812500	27805.519531
629.597656	27464.900391
628.382812	27525.595703
627.166992	27378.509766
625.951172	27490.611328
624.735352	27442.283203
623.519531	27153.439453
622.303711	27668.382812
621.086914	27172.042969
619.870117	27612.818359
618.653320	27367.294922
617.435547	27493.619141
616.218750	27617.841797
615.000977	27193.826172
613.783203	27556.175781
612.564453	27323.199219
611.346680	27293.457031
610.127930	27497.605469
608.909180	27373.482422
607.690430	27243.251953
606.470703	27186.884766
605.250977	27435.998047
604.031250	27225.886719
602.811523	27349.890625
601.591797	27211.583984
600.371094	27376.509766
599.150391	27236.199219
597.929688	27128.705078
596.708984	27539.236328
595.487305	27521.789062
594.265625	27215.777344
593.043945	27224.996094
591.822266	27146.240234
590.599609	27470.466797
589.376953	27383.511719
588.154297	26924.453125
586.931641	27628.775391
585.708984	27257.730469
584.485352	27295.531250
583.261719	27490.638672
582.038086	27256.689453
580.813477	27543.634766
579.589844	27250.542969
578.365234	27290.343750
577.140625	27577.119141
575.915039	27459.695312
574.690430	27260.695312
573.464844	26953.644531
572.239258	27478.908203
571.012695	27245.343750
569.787109	27380.916016
568.560547	27461.392578
567.333984	27435.853516
566.107422	27569.271484
564.879883	27264.593750
563.652344	27294.101562
562.425781	27462.089844
561.197266	27522.091797
559.969727	27270.580078
558.741211	27293.953125
557.512695	27227.771484
556.284180	27169.751953
555.055664	27132.095703
553.826172	27289.714844
552.596680	27170.705078
551.367188	27106.634766
550.137695	27520.300781
548.907227	27324.078125
547.676758	27300.654297
546.446289	27169.556641
545.215820	26900.380859
543.985352	27242.607422
542.753906	27188.751953
541.522461	27151.158203
540.291016	27026.294922
539.058594	27234.296875
537.826172	27083.087891
536.593750	26988.732422
535.361328	27050.587891
534.128906	27051.582031
532.895508	26967.421875
531.662109	26883.291016
530.428711	26839.724609
529.195312	26688.779297
527.960938	26819.496094
526.726562	26749.628906
525.492188	26679.789062
524.257812	26480.386719
523.022461	26746.673828
521.788086	26986.548828
520.552734	26853.976562
519.316406	26780.128906
518.081055	26453.447266
516.844727	26636.558594
515.608398	26769.048828
514.372070	26735.703125
513.134766	26896.419922
511.898438	26499.281250
510.661133	26716.558594
509.423828	26555.966797
508.185547	26488.349609
506.947266	26848.882812
505.709961	26688.353516
504.470703	26681.306641
503.232422	26906.369141
501.993164	26645.019531
500.754883	26589.558594
499.515625	26562.357422
498.275391	26595.669922
497.036133	26505.966797
495.795898	26648.142578
494.555664	26635.056641
493.314453	26549.423828
492.074219	26768.072266
490.833008	26519.267578
489.591797	26514.265625
488.350586	26607.941406
487.108398	26679.431641
485.867188	26547.580078
484.625000	26926.984375
483.382812	26748.851562
482.139648	26474.214844
480.896484	26447.093750
479.653320	26556.738281
478.410156	26495.427734
477.166992	26663.318359
475.922852	26481.408203
474.678711	26420.142578
473.434570	26541.736328
472.190430	26544.761719
470.945312	26734.572266
469.700195	26769.687500
468.455078	26583.941406
467.209961	26522.716797
465.963867	26385.251953
464.718750	26498.656250
463.472656	26479.609375
462.225586	26637.078125
460.979492	26475.625000
459.732422	26604.962891
458.485352	26513.736328
457.238281	26651.033203
455.990234	26708.121094
454.742188	26554.812500
453.494141	26517.746094
452.246094	26212.320312
450.998047	26533.757812
449.749023	26524.738281
448.500000	26109.390625
447.250977	26316.589844
446.000977	26335.626953
444.751953	26414.669922
443.501953	26447.679688
442.251953	26246.703125
441.000977	26107.783203
439.750977	26258.769531
438.500000	26035.955078
437.249023	26112.958984
435.997070	26163.960938
434.746094	26354.767578
433.494141	26201.996094
432.242188	25997.369141
430.989258	26234.009766
429.737305	26117.271484
428.484375	26236.058594
427.231445	26155.275391
425.978516	25896.982422
424.724609	25806.322266
423.470703	26012.810547
422.216797	26035.800781
420.962891	25701.972656
419.708008	25615.398438
418.454102	26090.759766
417.199219	25701.326172
415.943359	25819.955078
414.688477	25928.578125
413.432617	25963.490234
412.176758	25847.095703
410.920898	25834.240234
409.664062	25696.023438
408.408203	25784.666016
407.151367	25710.162109
405.893555	26027.478516
404.636719	25982.779297
403.378906	25967.917969
402.121094	26060.394531
400.863281	25723.578125
399.605469	25825.998047
398.346680	25896.593750
397.087891	25794.363281
395.829102	26061.529297
394.570312	26134.021484
393.310547	25682.433594
392.050781	25832.369141
390.791016	26063.603516
389.531250	26076.517578
388.270508	25651.064453
387.009766	25747.341797
385.749023	25887.203125
384.488281	25765.333984
383.226562	25851.621094
381.964844	25981.470703
380.703125	25849.742188
379.441406	25587.320312
378.178711	26032.046875
376.916016	25545.931641
375.653320	26194.412109
374.390625	25934.099609
373.126953	25735.234375
371.864258	25845.113281
370.599609	25563.251953
369.335938	26054.851562
368.072266	25846.222656
366.807617	26007.398438
365.542969	26010.369141
364.277344	25922.421875
363.012695	26340.371094
361.747070	26114.097656
360.481445	26924.925781
359.215820	26911.914062
357.949219	27475.466797
356.683594	28180.941406
355.416992	28459.812500
354.149414	29107.601562
352.882812	29818.281250
351.615234	30134.158203
350.347656	30331.578125
349.080078	30641.320312
347.811523	31388.619141
346.543945	32094.240234
345.275391	32915.867188
344.005859	33388.421875
342.737305	32869.867188
341.467773	31945.763672
340.198242	30259.900391
338.928711	28592.394531
337.659180	28021.992188
336.388672	27353.398438
335.118164	26726.378906
333.847656	26477.339844
332.576172	26324.777344
331.305664	26048.373047
330.034180	26063.083984
328.761719	25733.751953
327.490234	25856.617188
326.217773	25714.138672
324.945312	25679.775391
323.672852	25270.220703
322.400391	25675.898438
321.126953	25421.626953
319.853516	25232.240234
318.580078	25726.021484
317.305664	25363.943359
316.032227	25284.552734
314.757812	25324.861328
313.483398	25204.318359
312.208008	25446.613281
310.933594	25331.970703
309.658203	25372.236328
308.382812	25267.449219
307.106445	25570.289062
305.830078	25485.093750
304.554688	25352.917969
303.277344	25205.123047
302.000977	25390.255859
300.723633	25434.363281
299.446289	25480.408203
298.168945	25724.087891
296.891602	25905.062500
295.613281	25894.257812
294.334961	26419.355469
293.056641	26758.482422
291.778320	26808.125000
290.499023	27324.925781
289.219727	26938.621094
287.940430	27089.804688
286.661133	27074.873047
285.380859	26880.250000
284.100586	26972.767578
282.820312	27069.156250
281.539062	26630.626953
280.258789	26365.968750
278.977539	26425.335938
277.696289	26328.601562
276.414062	26313.828125
275.132812	26254.201172
273.850586	26216.046875
272.568359	26437.187500
271.285156	26650.447266
270.002930	26918.189453
268.719727	27524.847656
267.435547	28158.544922
266.152344	28778.365234
264.868164	29884.765625
263.583984	32051.802734
262.299805	34447.699219
261.015625	37663.960938
259.730469	42571.824219
258.445312	48903.800781
257.160156	55916.066406
255.875000	61080.160156
254.588867	63360.828125
253.302734	60296.761719
252.016602	54030.882812
250.730469	47899.531250
249.443359	41630.632812
248.156250	37259.953125
246.869141	34498.976562
245.581055	32183.705078
244.293945	30296.408203
243.005859	29467.652344
241.717773	28090.027344
240.428711	27306.632812
239.139648	26674.843750
237.850586	26084.025391
236.561523	25638.863281
235.272461	25122.136719
233.982422	25024.292969
232.692383	24647.416016
231.402344	24780.275391
230.112305	24442.330078
228.821289	24040.597656
227.530273	24016.634766
226.239258	23866.832031
224.947266	23434.462891
223.655273	23261.601562
222.363281	23406.150391
221.071289	23304.941406
219.779297	23391.394531
218.486328	22936.316406
217.193359	22980.267578
215.900391	22941.074219
214.606445	22681.552734
213.313477	22924.566406
212.019531	22624.572266
210.724609	22695.580078
209.430664	22646.816406
208.135742	22238.910156
206.840820	22394.892578
205.545898	22164.769531
204.250000	22488.601562
202.954102	22094.541016
201.658203	22063.302734
200.362305	22361.892578
199.066406	22268.904297
197.769531	22177.880859
196.472656	21980.869141
195.174805	22011.349609
193.877930	21737.367188
192.580078	22026.037109
191.282227	21717.484375
189.984375	21740.285156
188.685547	21747.671875
187.386719	21785.857422
186.087891	21508.376953
184.789062	21621.638672
183.489258	21409.708984
182.189453	21503.708984
180.889648	21791.914062
179.589844	21418.552734
178.289062	21437.515625
176.988281	21450.705078
175.687500	21600.332031
174.386719	21490.515625
173.084961	21563.234375
171.783203	21607.115234
170.481445	21165.152344
169.179688	21437.558594
167.876953	21527.503906
166.574219	21653.876953
165.271484	21427.142578
163.968750	21307.927734
162.665039	21271.232422
161.361328	21259.480469
160.057617	21247.732422
158.752930	21004.037109
157.449219	20982.755859
156.144531	21018.970703
154.838867	20892.322266
153.534180	20909.382812
152.228516	21152.417969
150.922852	20832.423828
149.617188	20621.671875
148.310547	20962.234375
147.004883	20395.599609
145.698242	20690.154297
144.390625	20737.830078
143.083984	20879.199219
141.776367	20770.019531
140.468750	20588.232422
139.161133	20849.968750
137.852539	20331.884766
136.543945	20494.210938
135.235352	20262.943359
133.926758	20060.412109
132.617188	20092.839844
131.308594	19961.060547
129.998047	19394.107422
128.688477	19714.826172
127.377930	19148.136719
126.068359	18816.320312
124.756836	18557.111328
123.446289	18273.208984
122.134766	17855.949219
120.823242	17595.166016
119.511719	17124.828125
