#Wave		#Intensity
1999.066406	16435.123047
1998.098633	16603.039062
1997.129883	16215.297852
1996.162109	16638.572266
1995.194336	16612.433594
1994.225586	16503.695312
1993.256836	16384.669922
1992.288086	16539.232422
1991.319336	16562.150391
1990.350586	16763.062500
1989.380859	16618.279297
1988.411133	16589.593750
1987.442383	16607.328125
1986.472656	16472.957031
1985.501953	16410.802734
1984.532227	16701.722656
1983.561523	16459.187500
1982.591797	16482.078125
1981.621094	16556.474609
1980.650391	16576.763672
1979.678711	16589.320312
1978.708008	16576.128906
1977.736328	16511.464844
1976.765625	16560.052734
1975.793945	16310.157227
1974.821289	16523.404297
1973.849609	16641.410156
1972.877930	16659.078125
1971.905273	16620.175781
1970.932617	16676.402344
1969.959961	16341.923828
1968.987305	16447.003906
1968.014648	16780.724609
1967.041016	16369.333008
1966.067383	16571.955078
1965.094727	16458.636719
1964.121094	16360.762695
1963.146484	16709.605469
1962.172852	16611.720703
1961.198242	16493.339844
1960.224609	16626.447266
1959.250000	16577.367188
1958.275391	16533.433594
1957.299805	16627.996094
1956.325195	16599.453125
1955.349609	16522.208984
1954.375000	16516.761719
1953.399414	16570.253906
1952.423828	16628.853516
1951.447266	16628.511719
1950.471680	16459.119141
1949.495117	16597.091797
1948.518555	16576.269531
1947.541992	16929.212891
1946.565430	16542.322266
1945.588867	16495.927734
1944.611328	16731.000000
1943.633789	16620.630859
1942.657227	16893.964844
1941.679688	16729.900391
1940.701172	16527.541016
1939.723633	16568.111328
1938.745117	16624.003906
1937.767578	16572.542969
1936.789062	16697.398438
1935.810547	16546.312500
1934.831055	16451.468750
1933.852539	16566.064453
1932.873047	16545.294922
1931.893555	16682.806641
1930.914062	16623.738281
1929.934570	16587.654297
1928.955078	16495.451172
1927.974609	16446.648438
1926.995117	16504.986328
1926.014648	16606.656250
1925.034180	16259.539062
1924.053711	16519.269531
1923.072266	16485.792969
1922.091797	16546.619141
1921.110352	16398.492188
1920.128906	16296.270508
1919.147461	16257.760742
1918.166016	16481.562500
1917.183594	16598.347656
1916.202148	16366.330078
1915.219727	16292.198242
1914.237305	16503.111328
1913.254883	16217.797852
1912.271484	16362.506836
1911.289062	16496.990234
1910.305664	16405.097656
1909.322266	16285.265625
1908.338867	16198.524414
1907.355469	16287.189453
1906.372070	16429.189453
1905.387695	16317.057617
1904.403320	16413.275391
1903.419922	16118.310547
1902.434570	16250.079102
1901.450195	16442.738281
1900.465820	16526.169922
1899.480469	16421.750000
1898.495117	16241.235352
1897.509766	16436.296875
1896.524414	16512.058594
1895.539062	16468.583984
1894.552734	16298.328125
1893.567383	16480.562500
1892.581055	16358.528320
1891.594727	16282.159180
1890.608398	16357.864258
1889.621094	16238.447266
1888.634766	16352.131836
1887.647461	16253.019531
1886.660156	16110.890625
1885.672852	16285.300781
1884.685547	16257.131836
1883.697266	16464.357422
1882.709961	16132.495117
1881.721680	16521.839844
1880.733398	16314.037109
1879.745117	16210.006836
1878.755859	16379.124023
1877.767578	16386.365234
1876.778320	16315.238281
1875.789062	16357.872070
1874.799805	16329.732422
1873.810547	16157.586914
1872.821289	16316.426758
1871.831055	16030.685547
1870.840820	16457.169922
1869.850586	16343.189453
1868.860352	16204.005859
1867.870117	16261.738281
1866.879883	16130.186523
1865.888672	16278.740234
1864.897461	16197.682617
1863.906250	16232.672852
1862.915039	16197.041992
1861.923828	15937.029297
1860.931641	16342.608398
1859.939453	16294.373047
1858.947266	16314.193359
1857.955078	16245.822266
1856.962891	16164.878906
1855.970703	16343.382812
1854.977539	16446.277344
1853.984375	16400.589844
1852.991211	16138.427734
1851.998047	16271.504883
1851.004883	16439.763672
1850.010742	16351.333984
1849.017578	16257.903320
1848.023438	16199.716797
1847.029297	16244.649414
1846.035156	16327.280273
1845.040039	16228.888672
1844.045898	16582.931641
1843.050781	16291.036133
1842.055664	16067.079102
1841.060547	16144.640625
1840.065430	16528.585938
1839.069336	16086.235352
1838.073242	16234.049805
1837.078125	16369.259766
1836.082031	16296.109375
1835.084961	16408.675781
1834.088867	16272.820312
1833.092773	16144.537109
1832.095703	16114.111328
1831.098633	16018.498047
1830.101562	15867.759766
1829.104492	16185.830078
1828.106445	16370.955078
1827.109375	16290.396484
1826.111328	16247.446289
1825.113281	16109.322266
1824.115234	16339.409180
1823.116211	16301.479492
1822.118164	16311.130859
1821.119141	16133.039062
1820.120117	16197.776367
1819.121094	16214.946289
1818.122070	16279.644531
1817.122070	16259.271484
1816.123047	16153.871094
1815.123047	16173.534180
1814.123047	16395.699219
1813.123047	16225.336914
1812.123047	16282.462891
1811.122070	16229.623047
1810.122070	16179.298828
1809.121094	16203.928711
1808.120117	16033.747070
1807.118164	15936.038086
1806.117188	16090.518555
1805.115234	16107.656250
1804.114258	16232.102539
1803.112305	16069.547852
1802.110352	16024.306641
1801.107422	16208.565430
1800.105469	16155.833008
1799.102539	15898.650391
1798.099609	16120.228516
1797.096680	16005.221680
1796.093750	15897.730469
1795.090820	16029.486328
1794.086914	16054.068359
1793.083008	15946.624023
1792.079102	16080.790039
1791.075195	15841.407227
1790.071289	16067.657227
1789.067383	16094.696289
1788.062500	16173.988281
1787.057617	16113.909180
1786.052734	16158.338867
1785.047852	16026.148438
1784.041992	21303.087891
1783.037109	16346.232422
1782.031250	16059.941406
1781.025391	16076.997070
1780.019531	16151.204102
1779.013672	15852.672852
1778.006836	16100.793945
1777.000977	16003.569336
1775.994141	15893.960938
1774.987305	15851.431641
1773.980469	15970.282227
1772.972656	15835.915039
1771.965820	15932.390625
1770.958008	15894.843750
1769.950195	15790.328125
1768.942383	16008.296875
1767.934570	15688.042969
1766.925781	15898.512695
1765.917969	16017.182617
1764.909180	15741.709961
1763.900391	15885.146484
1762.891602	15664.302734
1761.881836	15797.791992
1760.873047	15906.464844
1759.863281	15846.700195
1758.853516	15955.324219
1757.843750	15732.184570
1756.833984	15655.155273
1755.823242	15845.418945
1754.812500	15958.912109
1753.802734	15874.460938
1752.791992	15827.138672
1751.780273	15671.022461
1750.769531	15888.309570
1749.757812	15522.111328
1748.747070	15791.250977
1747.735352	15672.317383
1746.723633	15568.250000
1745.710938	15857.000000
1744.699219	15599.801758
1743.686523	15831.645508
1742.673828	15791.815430
1741.661133	15776.683594
1740.648438	15729.471680
1739.635742	15724.225586
1738.622070	15807.803711
1737.608398	15753.208008
1736.594727	15550.647461
1735.581055	15912.863281
1734.567383	15801.569336
1733.552734	15498.037109
1732.539062	15603.744141
1731.524414	15817.838867
1730.509766	15815.043945
1729.495117	15652.131836
1728.479492	15681.384766
1727.464844	15782.037109
1726.449219	15663.532227
1725.433594	15520.453125
1724.417969	15667.841797
1723.401367	15775.805664
1722.385742	15645.081055
1721.369141	15639.856445
1720.352539	15275.554688
1719.335938	15649.081055
1718.319336	15562.723633
1717.301758	15682.878906
1716.285156	15702.224609
1715.267578	15704.363281
1714.250000	15404.310547
1713.232422	15534.231445
1712.213867	15526.572266
1711.196289	15622.047852
1710.177734	15673.296875
1709.159180	15650.887695
1708.140625	15464.052734
1707.122070	15748.410156
1706.102539	15838.851562
1705.083984	15517.169922
1704.064453	15803.818359
1703.044922	15717.652344
1702.025391	15572.677734
1701.004883	15577.275391
1699.985352	15584.322266
1698.964844	15814.344727
1697.944336	15542.058594
1696.923828	15669.128906
1695.903320	15475.332031
1694.881836	15509.321289
1693.860352	15631.431641
1692.838867	15596.844727
1691.817383	15417.878906
1690.795898	15593.769531
1689.774414	15424.652344
1688.751953	15497.747070
1687.729492	15377.616211
1686.707031	15565.612305
1685.684570	15479.737305
1684.662109	15481.883789
1683.638672	15713.749023
1682.616211	15417.759766
1681.592773	15258.679688
1680.569336	15385.430664
1679.544922	15560.977539
1678.521484	15358.004883
1677.497070	15308.901367
1676.472656	15518.537109
1675.448242	15227.826172
1674.423828	15281.246094
1673.399414	15437.104492
1672.374023	15202.659180
1671.348633	15256.052734
1670.323242	15304.551758
1669.297852	15233.581055
1668.272461	15550.171875
1667.246094	15452.375977
1666.220703	15210.863281
1665.194336	15537.032227
1664.167969	15242.004883
1663.140625	15334.274414
1662.114258	15234.166016
1661.086914	15323.968750
1660.059570	15367.495117
1659.032227	15194.428711
1658.004883	15345.013672
1656.977539	15602.579102
1655.949219	15230.125000
1654.921875	15137.450195
1653.893555	15370.599609
1652.865234	15170.973633
1651.835938	15326.259766
1650.807617	15282.231445
1649.778320	15264.942383
1648.749023	15541.583984
1647.719727	15065.230469
1646.690430	15222.823242
1645.660156	15399.781250
1644.630859	15151.880859
1643.600586	15253.551758
1642.570312	15139.223633
1641.540039	15209.319336
1640.508789	15029.544922
1639.478516	15264.551758
1638.447266	15157.575195
1637.416016	15023.966797
1636.384766	15115.833984
1635.353516	15064.679688
1634.321289	15129.851562
1633.290039	15105.361328
1632.257812	14865.298828
1631.225586	15288.897461
1630.192383	14959.295898
1629.160156	15174.525391
1628.126953	15053.224609
1627.094727	15101.372070
1626.061523	14701.865234
1625.027344	14887.954102
1623.994141	15011.086914
1622.959961	14952.796875
1621.926758	14889.691406
1620.892578	15266.595703
1619.858398	14845.727539
1618.823242	14765.756836
1617.789062	14859.781250
1616.753906	14787.083008
1615.718750	15023.576172
1614.683594	14834.955078
1613.648438	14940.971680
1612.612305	15228.004883
1611.577148	14810.150391
1610.541016	14867.847656
1609.504883	14780.756836
1608.468750	14816.726562
1607.431641	14857.506836
1606.395508	14833.162109
1605.358398	14922.144531
1604.321289	14989.400391
1603.284180	14902.376953
1602.247070	14827.432617
1601.208984	14803.111328
1600.170898	14631.852539
1599.132812	14790.620117
1598.094727	14872.271484
1597.056641	14660.160156
1596.018555	14729.768555
1594.979492	14991.894531
1593.940430	14868.909180
1592.901367	14943.252930
1591.862305	14851.590820
1590.822266	14839.327148
1589.783203	14538.509766
1588.743164	14987.916016
1587.703125	14850.635742
1586.663086	14742.244141
1585.622070	14737.216797
1584.582031	14657.713867
1583.541016	14897.714844
1582.500000	14650.093750
1581.458984	14781.954102
1580.417969	14568.051758
1579.375977	14793.492188
1578.334961	15069.251953
1577.292969	14625.056641
1576.250977	14886.352539
1575.208008	14406.367188
1574.166016	14473.349609
1573.123047	14463.579102
1572.081055	14647.998047
1571.037109	14607.037109
1569.994141	14822.518555
1568.951172	14520.365234
1567.907227	14637.562500
1566.863281	14711.601562
1565.820312	14728.138672
1564.775391	14675.232422
1563.731445	14548.130859
1562.686523	14600.589844
1561.642578	14535.766602
1560.597656	14542.746094
1559.552734	14458.817383
1558.506836	14697.815430
1557.461914	14699.977539
1556.416016	14704.530273
1555.370117	14744.938477
1554.324219	14551.099609
1553.278320	14718.173828
1552.231445	14696.434570
1551.185547	14579.149414
1550.138672	14433.244141
1549.091797	14616.933594
1548.044922	14380.344727
1546.997070	14504.297852
1545.950195	14513.644531
1544.902344	14606.507812
1543.854492	14887.820312
1542.806641	14634.692383
1541.757812	14560.531250
1540.709961	14462.549805
1539.661133	14428.974609
1538.612305	14648.087891
1537.563477	14452.425781
1536.514648	14514.184570
1535.464844	14590.214844
1534.415039	14530.442383
1533.366211	14415.913086
1532.316406	14672.889648
1531.265625	14451.239258
1530.215820	14496.266602
1529.165039	14619.814453
1528.114258	14567.234375
1527.063477	14448.059570
1526.012695	14326.547852
1524.960938	14480.951172
1523.910156	14181.141602
1522.858398	14547.100586
1521.806641	14266.400391
1520.754883	14482.492188
1519.702148	14351.596680
1518.650391	14470.191406
1517.597656	14265.710938
1516.544922	14510.143555
1515.492188	14355.589844
1514.439453	14234.327148
1513.385742	14319.604492
1512.332031	14205.508789
1511.278320	14361.941406
1510.224609	14152.987305
1509.170898	14302.255859
1508.116211	14591.385742
1507.062500	14330.337891
1506.007812	14206.876953
1504.953125	14344.176758
1503.897461	14265.781250
1502.842773	14289.292969
1501.787109	14353.067383
1500.731445	14319.710938
1499.675781	14032.986328
1498.620117	14411.662109
1497.563477	14302.561523
1496.507812	14155.630859
1495.451172	14247.752930
1494.394531	14190.789062
1493.337891	14202.443359
1492.280273	14124.220703
1491.223633	14043.661133
1490.166016	13840.189453
1489.108398	13951.175781
1488.050781	13899.048828
1486.992188	14177.753906
1485.934570	14213.017578
1484.875977	13917.572266
1483.817383	14023.719727
1482.758789	14075.518555
1481.699219	13872.328125
1480.640625	13980.785156
1479.581055	13964.122070
1478.521484	13902.633789
1477.461914	13954.405273
1476.402344	14095.790039
1475.341797	13897.526367
1474.282227	13906.828125
1473.221680	13802.966797
1472.161133	13967.844727
1471.099609	13687.262695
1470.039062	13781.416016
1468.977539	13889.668945
1467.916016	13863.627930
1466.854492	13741.042969
1465.792969	13948.133789
1464.730469	13700.809570
1463.668945	13858.404297
1462.606445	13733.552734
1461.543945	13672.271484
1460.481445	13975.634766
1459.417969	13775.563477
1458.354492	13627.298828
1457.291992	13787.084961
1456.228516	13747.002930
1455.164062	13561.215820
1454.100586	13829.021484
1453.036133	13622.139648
1451.971680	13654.933594
1450.907227	13513.917969
1449.842773	13715.788086
1448.778320	13863.585938
1447.712891	13588.807617
1446.648438	13565.249023
1445.583008	13858.476562
1444.516602	13710.534180
1443.451172	13543.878906
1442.384766	13635.259766
1441.319336	13696.125000
1440.252930	13548.315430
1439.186523	13754.499023
1438.119141	13801.247070
1437.052734	13421.525391
1435.985352	13501.112305
1434.917969	13599.409180
1433.850586	13575.892578
1432.782227	13388.481445
1431.714844	13652.957031
1430.646484	13386.016602
1429.578125	13655.078125
1428.509766	13470.125000
1427.441406	13673.571289
1426.372070	13476.984375
1425.303711	13603.183594
1424.234375	13490.851562
1423.165039	13453.364258
1422.094727	13623.906250
1421.025391	13467.228516
1419.955078	13658.733398
1418.884766	13280.184570
1417.814453	13532.378906
1416.744141	13455.222656
1415.672852	13686.281250
1414.602539	13436.384766
1413.531250	13272.931641
1412.459961	13202.875977
1411.388672	13263.498047
1410.316406	13261.115234
1409.244141	13289.051758
1408.172852	13288.996094
1407.099609	13337.898438
1406.027344	13202.636719
1404.955078	13412.344727
1403.881836	13365.662109
1402.808594	13162.904297
1401.735352	13633.386719
1400.662109	13288.590820
1399.588867	13176.764648
1398.514648	13251.221680
1397.440430	13232.545898
1396.366211	13369.799805
1395.291992	13332.494141
1394.216797	13311.486328
1393.142578	13202.098633
1392.067383	13162.516602
1390.992188	13381.035156
1389.916992	13194.977539
1388.840820	13050.824219
1387.765625	13280.862305
1386.689453	13320.295898
1385.613281	13180.841797
1384.537109	12990.339844
1383.459961	13245.765625
1382.383789	13322.323242
1381.306641	13347.782227
1380.229492	13078.472656
1379.152344	13134.132812
1378.074219	13048.246094
1376.997070	13178.119141
1375.918945	13085.296875
1374.840820	13423.812500
1373.762695	13147.821289
1372.683594	13321.624023
1371.605469	12920.599609
1370.526367	12985.471680
1369.447266	13119.823242
1368.368164	12999.327148
1367.288086	13112.783203
1366.208984	13082.635742
1365.128906	13154.363281
1364.048828	13084.869141
1362.968750	13158.882812
1361.887695	13147.257812
1360.807617	12918.173828
1359.726562	13040.750000
1358.645508	13107.778320
1357.564453	12927.379883
1356.482422	13063.756836
1355.401367	13068.336914
1354.319336	13012.831055
1353.237305	12934.239258
1352.155273	13028.932617
1351.073242	12996.559570
1349.990234	13132.773438
1348.907227	13047.288086
1347.824219	12857.953125
1346.741211	12998.732422
1345.658203	13107.154297
1344.574219	13220.151367
1343.490234	13040.146484
1342.406250	12957.073242
1341.322266	13033.139648
1340.238281	13021.567383
1339.153320	13127.559570
1338.068359	12929.293945
1336.983398	13132.041992
1335.898438	13072.077148
1334.813477	12834.769531
1333.727539	12873.908203
1332.641602	12936.059570
1331.556641	13018.907227
1330.469727	13062.594727
1329.383789	13147.689453
1328.296875	13000.357422
1327.210938	12977.307617
1326.124023	13214.178711
1325.036133	13041.616211
1323.949219	13007.072266
1322.861328	12901.275391
1321.774414	12977.094727
1320.686523	12804.697266
1319.597656	13078.101562
1318.509766	12970.069336
1317.420898	12951.650391
1316.333008	12983.757812
1315.244141	12777.072266
1314.154297	12790.834961
1313.065430	12779.344727
1311.975586	12882.594727
1310.886719	12738.020508
1309.796875	12666.903320
1308.706055	12891.670898
1307.616211	12740.292969
1306.525391	12671.504883
1305.435547	12524.804688
1304.344727	12792.977539
1303.252930	12772.334961
1302.162109	12806.683594
1301.070312	12573.021484
1299.979492	12944.046875
1298.887695	12476.887695
1297.794922	12474.632812
1296.703125	12607.425781
1295.610352	12261.869141
1294.517578	12634.902344
1293.424805	12573.138672
1292.332031	12461.077148
1291.239258	12291.883789
1290.145508	12502.300781
1289.051758	12493.182617
1287.958008	12326.359375
1286.864258	12271.570312
1285.769531	12358.458984
1284.675781	12381.352539
1283.581055	12246.642578
1282.486328	12084.579102
1281.391602	12459.112305
1280.295898	12429.465820
1279.201172	12322.231445
1278.105469	12084.965820
1277.009766	12320.054688
1275.913086	12297.296875
1274.817383	12374.895508
1273.720703	12324.770508
1272.624023	12338.500000
1271.527344	12085.529297
1270.430664	12263.384766
1269.333008	12147.235352
1268.236328	12211.104492
1267.138672	12197.505859
1266.041016	12079.152344
1264.942383	12252.291016
1263.844727	12052.013672
1262.746094	12165.915039
1261.647461	11965.724609
1260.548828	11808.836914
1259.450195	12000.065430
1258.350586	12032.009766
1257.250977	11875.194336
1256.152344	11941.252930
1255.051758	12105.037109
1253.952148	11905.108398
1252.852539	12157.462891
1251.751953	12007.580078
1250.651367	11905.455078
1249.550781	12084.993164
1248.449219	11760.353516
1247.348633	11923.958984
1246.247070	11760.631836
1245.145508	12001.341797
1244.043945	11856.211914
1242.941406	11879.019531
1241.839844	11958.525391
1240.737305	11815.748047
1239.634766	11926.981445
1238.532227	11770.658203
1237.428711	11884.124023
1236.326172	11902.366211
1235.222656	11829.966797
1234.119141	11818.760742
1233.015625	12043.119141
1231.911133	11896.000977
1230.807617	11694.593750
1229.703125	11950.544922
1228.598633	11724.302734
1227.493164	11792.329102
1226.388672	11722.313477
1225.283203	11797.099609
1224.177734	11647.946289
1223.072266	11765.683594
1221.966797	11752.245117
1220.861328	11670.995117
1219.754883	11797.703125
1218.648438	11592.190430
1217.541992	11867.977539
1216.435547	11628.642578
1215.328125	11716.871094
1214.220703	11814.097656
1213.113281	11685.526367
1212.005859	11705.977539
1210.898438	11588.754883
1209.790039	11631.779297
1208.682617	11713.138672
1207.574219	11656.877930
1206.464844	11638.975586
1205.356445	11787.931641
1204.248047	11447.636719
1203.138672	11824.221680
1202.029297	11700.382812
1200.919922	11486.463867
1199.809570	11506.904297
1198.700195	11662.476562
1197.589844	11660.357422
1196.479492	11608.707031
1195.368164	11496.293945
1194.257812	11575.229492
1193.146484	11352.600586
1192.036133	11492.278320
1190.923828	11589.166016
1189.812500	11548.826172
1188.701172	11362.339844
1187.588867	11459.196289
1186.476562	11425.644531
1185.364258	11578.638672
1184.251953	11376.550781
1183.138672	11531.744141
1182.026367	11446.538086
1180.913086	11626.365234
1179.799805	11473.811523
1178.685547	11332.538086
1177.572266	11422.503906
1176.458008	11440.623047
1175.343750	11362.255859
1174.229492	11494.789062
1173.114258	11470.268555
1172.000000	11273.083984
1170.884766	11259.823242
1169.769531	11349.683594
1168.654297	11264.691406
1167.538086	11307.459961
1166.422852	11386.058594
1165.306641	11516.150391
1164.190430	11417.750000
1163.074219	11433.585938
1161.957031	11106.874023
1160.840820	11187.673828
1159.723633	11404.963867
1158.606445	11279.819336
1157.488281	11286.714844
1156.371094	11333.869141
1155.252930	11213.277344
1154.134766	11276.079102
1153.016602	11202.487305
1151.898438	11296.559570
1150.779297	11238.633789
1149.661133	16726.404297
1148.541992	12818.412109
1147.421875	11201.224609
1146.302734	11094.226562
1145.183594	11179.282227
1144.063477	11061.165039
1142.943359	11222.080078
1141.823242	11130.775391
1140.702148	11046.196289
1139.581055	11024.107422
1138.460938	11158.145508
1137.339844	11075.836914
1136.217773	10969.033203
1135.096680	11337.059570
1133.974609	11261.447266
1132.852539	11065.536133
1131.730469	11001.138672
1130.608398	10823.165039
1129.485352	11112.934570
1128.363281	11162.121094
1127.240234	10946.368164
1126.117188	10984.436523
1124.993164	10875.613281
1123.870117	10935.930664
1122.746094	10973.978516
1121.622070	10983.098633
1120.498047	10898.814453
1119.373047	10907.943359
1118.249023	10930.407227
1117.124023	10837.287109
1115.999023	10890.864258
1114.874023	10915.538086
1113.748047	10802.478516
1112.623047	10816.054688
1111.497070	11073.884766
1110.371094	10956.416992
1109.244141	11005.470703
1108.118164	10950.198242
1106.991211	10923.791016
1105.864258	10666.666992
1104.737305	10760.099609
1103.610352	10857.931641
1102.482422	10971.250000
1101.355469	10842.882812
1100.227539	10787.707031
1099.098633	10690.445312
1097.970703	10788.199219
1096.841797	10896.993164
1095.713867	10762.110352
1094.584961	10884.155273
1093.455078	10698.399414
1092.326172	10824.837891
1091.196289	10769.742188
1090.066406	10827.521484
1088.936523	10807.843750
1087.806641	10967.348633
1086.675781	10748.603516
1085.545898	10888.159180
1084.415039	10600.971680
1083.284180	10780.289062
1082.152344	10570.576172
1081.021484	10745.414062
1079.889648	10674.964844
1078.757812	10876.224609
1077.625977	10743.939453
1076.493164	10686.775391
1075.361328	10693.652344
1074.228516	10795.435547
1073.095703	10599.262695
1071.962891	10678.960938
1070.829102	10573.327148
1069.695312	10811.802734
1068.561523	10642.230469
1067.427734	10750.523438
1066.293945	10622.907227
1065.159180	10812.709961
1064.025391	10713.774414
1062.890625	10791.128906
1061.755859	10608.527344
1060.620117	10674.859375
1059.485352	10683.916016
1058.349609	10668.751953
1057.213867	10763.650391
1056.078125	10402.958008
1054.941406	10464.864258
1053.804688	10676.343750
1052.668945	10665.590820
1051.531250	10668.037109
1050.394531	10628.705078
1049.257812	10637.750977
1048.120117	10547.885742
1046.982422	10462.448242
1045.844727	10590.163086
1044.706055	10537.699219
1043.568359	10656.567383
1042.429688	10637.047852
1041.291016	10437.502930
1040.152344	10382.908203
1039.012695	10694.850586
1037.874023	10565.621094
1036.734375	10436.438477
1035.594727	10546.395508
1034.454102	10454.545898
1033.314453	10481.135742
1032.173828	10459.484375
1031.033203	10306.326172
1029.892578	10475.374023
1028.751953	10409.913086
1027.610352	10491.250977
1026.468750	10498.088867
1025.327148	10474.265625
1024.185547	10597.146484
1023.043945	10512.018555
1021.901367	10168.655273
1020.758789	10361.548828
1019.616211	10462.479492
1018.473633	10359.936523
1017.330078	10277.114258
1016.187500	10373.630859
1015.043945	10347.678711
1013.900391	10343.594727
1012.755859	10391.963867
1011.612305	10400.982422
1010.467773	10385.966797
1009.323242	10432.115234
1008.178711	10375.604492
1007.033203	10273.260742
1005.887695	10229.896484
1004.743164	10358.980469
1003.597656	10243.600586
1002.451172	10333.359375
1001.305664	10335.825195
1000.159180	10253.228516
999.012695	10168.480469
997.866211	10146.992188
996.718750	10182.186523
995.572266	10197.752930
994.424805	10409.429688
993.277344	10237.582031
992.129883	10305.406250
990.981445	10061.770508
989.833984	10131.779297
988.685547	10129.917969
987.537109	10154.177734
986.387695	10256.773438
985.239258	10220.075195
984.089844	10065.915039
982.940430	10120.617188
981.791016	10075.264648
980.640625	10069.064453
979.491211	10336.774414
978.340820	10169.691406
977.190430	10093.937500
976.040039	10055.146484
974.888672	10303.110352
973.738281	10216.513672
972.586914	10218.978516
971.434570	10191.046875
970.283203	10273.830078
969.131836	10091.807617
967.979492	10230.994141
966.827148	10198.740234
965.674805	10270.614258
964.521484	10223.182617
963.368164	10171.431641
962.215820	10106.692383
961.061523	10152.518555
959.908203	10178.823242
958.754883	10155.283203
957.600586	10038.601562
956.446289	10212.192383
955.291992	10097.708008
954.136719	10132.656250
952.982422	10055.027344
951.827148	9964.440430
950.671875	9958.279297
949.516602	10174.959961
948.360352	10067.095703
947.204102	10026.313477
946.048828	10046.090820
944.891602	10042.080078
943.735352	10001.323242
942.578125	10103.215820
941.421875	10004.123047
940.264648	10030.365234
939.106445	9974.520508
937.949219	9927.333008
936.791016	10044.256836
935.632812	10100.692383
934.474609	9947.749023
933.316406	9978.285156
932.157227	10077.851562
930.999023	9884.009766
929.839844	9880.032227
928.680664	10018.374023
927.520508	9816.025391
926.360352	10027.615234
925.201172	9842.580078
924.041016	10023.919922
922.879883	10110.401367
921.719727	9890.987305
920.558594	9893.471680
919.397461	9824.899414
918.236328	9836.004883
917.075195	9797.601562
915.913086	9922.761719
914.750977	9843.474609
913.588867	9830.904297
912.426758	9912.971680
911.263672	9887.489258
910.101562	9868.465820
908.938477	9924.684570
907.775391	9843.333984
906.611328	9770.607422
905.448242	9893.413086
904.284180	9805.666992
903.120117	9625.606445
901.956055	9759.104492
900.791016	9742.276367
899.625977	9871.410156
898.461914	9648.547852
897.295898	9878.495117
896.130859	9855.219727
894.964844	9808.359375
893.799805	9650.003906
892.633789	9706.112305
891.466797	9685.027344
890.300781	9608.225586
889.133789	9679.308594
887.966797	9728.940430
886.799805	9615.756836
885.632812	9594.706055
884.465820	9809.203125
883.297852	9696.065430
882.129883	9835.546875
880.961914	9767.386719
879.792969	9650.039062
878.624023	9622.584961
877.456055	9616.529297
876.287109	9640.415039
875.117188	9679.257812
873.948242	9688.157227
872.778320	9697.053711
871.608398	9678.166016
870.438477	9631.510742
869.267578	9764.307617
868.097656	9649.307617
866.926758	9410.500000
865.755859	9758.893555
864.583984	9661.034180
863.413086	9712.602539
862.241211	9582.780273
861.069336	9519.139648
859.897461	9570.704102
858.725586	9701.155273
857.552734	9458.422852
856.379883	9669.853516
855.207031	9463.450195
854.034180	9557.594727
852.860352	9562.218750
851.686523	9649.918945
850.512695	9447.929688
849.338867	9567.559570
848.165039	9670.112305
846.990234	9591.691406
845.815430	9613.327148
844.640625	9626.443359
843.465820	9599.131836
842.290039	9620.752930
841.115234	9735.939453
839.939453	9651.211914
838.762695	9772.727539
837.586914	9607.254883
836.410156	9518.346680
835.233398	9576.076172
834.056641	9699.637695
832.879883	9797.666016
831.703125	9696.045898
830.525391	9605.078125
829.347656	9694.577148
828.169922	9652.457031
826.991211	9576.400391
825.812500	9489.763672
824.634766	9725.576172
823.455078	9484.126953
822.276367	9675.324219
821.097656	9580.251953
819.917969	9540.324219
818.738281	9752.595703
817.558594	9515.599609
816.377930	9543.494141
815.197266	9628.564453
814.017578	9510.309570
812.835938	9576.298828
811.655273	9517.368164
810.474609	9477.506836
809.292969	9518.071289
808.111328	9463.414062
806.929688	9654.150391
805.747070	9622.751953
804.564453	9576.562500
803.381836	9572.671875
802.199219	9594.147461
801.016602	9518.401367
799.833008	9501.845703
798.650391	9605.709961
797.466797	9356.806641
796.282227	9393.082031
795.098633	9435.677734
793.914062	9338.932617
792.729492	9394.185547
791.544922	9487.400391
790.360352	9308.416992
789.174805	9448.019531
787.989258	9387.212891
786.803711	9495.119141
785.618164	9223.502930
784.431641	9500.024414
783.246094	9513.012695
782.059570	9610.278320
780.872070	9498.947266
779.685547	9404.506836
778.498047	9514.372070
777.310547	9443.124023
776.123047	9344.536133
774.935547	9477.500977
773.747070	9450.489258
772.559570	9333.017578
771.371094	9476.427734
770.181641	9411.572266
768.993164	9338.330078
767.803711	9384.949219
766.614258	9299.125977
765.424805	9442.407227
764.235352	9497.384766
763.044922	9575.449219
761.855469	9273.310547
760.665039	9309.387695
759.473633	9490.324219
758.283203	9257.643555
757.091797	9373.458008
755.900391	9369.617188
754.708984	9403.541992
753.517578	9464.723633
752.325195	9211.289062
751.132812	9438.137695
749.940430	9381.873047
748.748047	9378.031250
747.554688	9374.191406
746.361328	9510.740234
745.167969	9318.330078
743.974609	9371.054688
742.781250	9279.261719
741.586914	9262.878906
740.392578	9177.419922
739.198242	9368.267578
738.003906	9504.636719
736.808594	9394.072266
735.613281	9291.915039
734.417969	9357.112305
733.222656	9378.372070
732.027344	9249.094727
730.831055	9326.803711
729.634766	9277.000000
728.438477	9185.423828
727.241211	9319.504883
726.044922	9363.721680
724.847656	9359.889648
723.650391	9222.429688
722.452148	9124.684570
721.254883	9112.548828
720.056641	9419.694336
718.858398	9115.413086
717.660156	9355.690430
716.460938	9322.663086
715.262695	9302.159180
714.063477	9306.680664
712.864258	9142.359375
711.664062	9332.388672
710.464844	9203.545898
709.264648	9220.579102
708.064453	9320.921875
706.863281	9154.666992
705.663086	9246.655273
704.461914	9263.666992
703.260742	9261.939453
702.059570	9285.184570
700.858398	9289.694336
699.656250	9285.881836
698.454102	9400.618164
697.251953	9378.070312
696.048828	9384.637695
694.846680	9293.505859
693.643555	9227.346680
692.440430	9140.434570
691.237305	9408.797852
690.033203	9371.732422
688.830078	9208.002930
687.625977	9401.456055
686.420898	9254.387695
685.216797	9204.923828
684.011719	9325.638672
682.806641	9203.562500
681.601562	9400.982422
680.396484	9475.964844
679.190430	9183.894531
677.985352	9200.837891
676.778320	9308.979492
675.572266	9292.734375
674.366211	9257.845703
673.159180	9305.836914
671.952148	9401.448242
670.745117	9296.148438
669.537109	9288.200195
668.330078	9464.494141
667.122070	9361.310547
665.914062	9237.470703
664.705078	9272.986328
663.497070	9308.487305
662.288086	9213.680664
661.079102	9307.076172
659.870117	9214.372070
658.660156	9181.644531
657.450195	9188.195312
656.240234	9262.928711
655.030273	9151.707031
653.820312	9228.483398
652.609375	9344.467773
651.398438	9262.197266
650.187500	9276.980469
648.976562	9242.222656
647.764648	9046.522461
646.552734	9240.830078
645.340820	9129.775391
644.128906	9229.124023
642.916992	9109.864258
641.704102	9260.718750
640.491211	9071.415039
639.278320	9059.414062
638.064453	9152.500000
636.850586	9031.303711
635.637695	9128.478516
634.422852	9099.999023
633.208984	9155.945312
631.994141	9160.407227
630.780273	8950.821289
629.564453	8984.127930
628.349609	9167.608398
627.134766	9141.208984
625.918945	9215.590820
624.703125	9108.999023
623.487305	9152.521484
622.270508	9056.257812
621.053711	9097.717773
619.836914	9089.849609
618.620117	9205.242188
617.403320	9146.008789
616.185547	9400.984375
614.967773	9380.745117
613.750000	9270.192383
612.532227	9176.099609
611.313477	9379.578125
610.094727	9279.343750
608.875977	9283.758789
607.657227	9124.105469
606.438477	9093.689453
605.218750	8934.130859
603.999023	8955.002930
602.779297	9029.147461
601.558594	8972.134766
600.338867	9117.946289
599.118164	9040.456055
597.896484	8942.516602
596.675781	8885.561523
595.454102	8849.095703
594.233398	8949.766602
593.011719	8954.226562
591.789062	8852.301758
590.567383	9083.822266
589.344727	8916.467773
588.122070	8941.375977
586.899414	9041.913086
585.675781	8858.309570
584.452148	8950.649414
583.228516	8995.961914
582.004883	8900.306641
580.781250	8937.442383
579.556641	8827.539062
578.332031	8913.670898
577.107422	9014.059570
575.882812	8745.016602
574.657227	8855.600586
573.431641	8790.695312
572.206055	8825.759766
570.980469	8934.225586
569.753906	8808.172852
568.527344	8804.480469
567.300781	8994.414062
566.074219	8878.609375
564.847656	8925.839844
563.620117	8858.978516
562.392578	8763.628906
561.165039	8821.034180
559.936523	8713.511719
558.708008	8740.371094
557.480469	8887.291992
556.250977	8938.524414
555.022461	8688.655273
553.792969	8939.233398
552.563477	8758.598633
551.333984	8917.574219
550.104492	8661.796875
548.874023	8761.790039
547.644531	8841.424805
546.414062	8847.889648
545.182617	8825.913086
543.952148	8818.161133
542.720703	8605.329102
541.489258	8887.929688
540.257812	8833.484375
539.025391	8817.617188
537.793945	8706.393555
536.561523	8696.641602
535.328125	8540.860352
534.095703	8638.618164
532.862305	8602.525391
531.628906	8442.794922
530.395508	8645.902344
529.162109	8751.670898
527.927734	8675.064453
526.693359	8669.379883
525.458984	8766.982422
524.224609	8617.522461
522.989258	8709.022461
521.754883	8723.576172
520.519531	8588.372070
519.283203	8851.803711
518.047852	8645.825195
516.811523	8565.319336
515.575195	8636.502930
514.338867	8630.833008
513.101562	8524.096680
511.865234	8609.393555
510.627930	8442.082031
509.390625	8614.231445
508.152344	8509.596680
506.914062	8772.542969
505.676758	8575.039062
504.437500	8636.002930
503.199219	8723.181641
501.959961	8578.264648
500.721680	8740.070312
499.481445	8631.512695
498.242188	8631.902344
497.002930	8638.340820
495.762695	8503.654297
494.522461	8657.256836
493.281250	8558.890625
492.041016	8569.366211
490.799805	8565.736328
489.558594	8640.658203
488.317383	8540.354492
487.075195	8544.784180
485.833984	8672.004883
484.591797	8471.119141
483.348633	8708.978516
482.106445	8546.386719
480.863281	8585.003906
479.620117	8498.917969
478.376953	8424.927734
477.133789	8513.803711
475.889648	8566.465820
474.645508	8438.246094
473.401367	8408.524414
472.157227	8599.784180
470.912109	8473.637695
469.666992	8658.788086
468.421875	8538.700195
467.176758	8344.386719
465.930664	8415.060547
464.684570	8469.655273
463.438477	8548.302734
462.192383	8468.461914
460.945312	8456.835938
459.699219	8477.293945
458.452148	8423.571289
457.204102	8425.989258
455.957031	8482.510742
454.708984	8424.809570
453.460938	8345.094727
452.212891	8413.615234
450.963867	8347.949219
449.715820	8290.315430
448.466797	8426.861328
447.217773	8267.169922
445.967773	8311.626953
444.717773	8426.084961
443.467773	8444.493164
442.217773	8394.903320
440.967773	8395.315430
439.716797	8251.800781
438.465820	8466.089844
437.214844	8404.541992
435.963867	8446.905273
434.711914	8365.409180
433.459961	8313.899414
432.208008	8234.455078
430.956055	8306.761719
429.703125	8285.230469
428.450195	8455.283203
427.197266	8270.125000
425.944336	8372.291016
424.691406	8420.568359
423.437500	8395.045898
422.183594	8359.564453
420.928711	8286.222656
419.674805	8661.320312
418.419922	8677.614258
417.165039	8787.534180
415.910156	8624.534180
414.654297	8764.292969
413.399414	8812.410156
412.143555	8758.983398
410.886719	8689.655273
409.630859	8542.745117
408.374023	8511.284180
407.117188	8424.137695
405.860352	8547.835938
404.602539	8196.255859
403.345703	8107.229004
402.087891	8320.361328
400.830078	8129.992676
399.571289	8188.059570
398.313477	8265.969727
397.054688	8091.607422
395.794922	8221.135742
394.536133	8169.942383
393.276367	8057.232422
392.016602	8174.784180
390.756836	8218.873047
389.497070	8167.717285
388.236328	8211.790039
386.975586	8083.311523
385.714844	8145.227539
384.454102	8155.577637
383.192383	8048.983887
381.930664	8061.329102
380.668945	8067.725098
379.407227	7949.322266
378.144531	7979.502930
376.882812	8096.797852
375.620117	8132.876953
374.356445	8117.478516
373.093750	8009.071289
371.830078	8009.530273
370.566406	8136.597656
369.301758	7994.623535
368.038086	7941.690918
366.773438	7928.320801
365.508789	7932.746582
364.244141	7986.579590
362.978516	7911.950684
361.712891	8080.353516
360.447266	8147.953613
359.181641	8069.385742
357.916016	7759.830078
356.649414	7916.287109
355.382812	7875.308594
354.116211	7761.330078
352.848633	7955.184082
351.581055	7892.520996
350.313477	7952.162109
349.045898	7763.321777
347.778320	7907.739258
346.509766	7778.112793
345.241211	7816.049805
343.972656	7704.222656
342.703125	7854.450195
341.433594	7752.505371
340.164062	7896.757812
338.894531	7909.039062
337.625000	7722.495117
336.354492	7791.880371
335.083984	7841.561035
333.813477	7745.634766
332.541992	7771.700684
331.271484	7917.721191
330.000000	7778.576660
328.727539	7653.245605
327.456055	7547.617188
326.183594	7630.683105
324.911133	7674.421387
323.638672	7627.780273
322.366211	7801.127930
321.092773	7805.534668
319.819336	7646.986816
318.545898	7802.564453
317.271484	7928.644531
315.998047	7809.406250
314.723633	7694.136230
313.449219	7649.520508
312.173828	7832.402344
310.899414	7887.770996
309.624023	7782.373535
308.347656	7839.689941
307.072266	7983.203613
305.795898	8028.704102
304.519531	8150.579590
303.243164	8250.866211
301.966797	8497.967773
300.689453	8324.073242
299.412109	8627.828125
298.134766	8614.443359
296.857422	8900.416992
295.579102	8973.056641
294.300781	9024.154297
293.022461	8875.776367
291.744141	8623.835938
290.464844	8358.307617
289.185547	8051.839355
287.906250	7892.034180
286.625977	7749.871582
285.346680	7601.903809
284.066406	7733.247559
282.786133	7628.292480
281.504883	7624.886230
280.224609	7510.232422
278.943359	7426.843750
277.662109	7353.241211
276.379883	7373.295410
275.097656	7444.048340
273.816406	7440.678711
272.533203	7447.057129
271.250977	7295.554688
269.967773	7261.034180
268.684570	7349.273926
267.401367	7291.379883
266.118164	7375.684570
264.833984	7232.126953
263.549805	7236.587402
262.265625	7357.836914
260.981445	7191.010254
259.696289	7248.010742
258.411133	7209.665039
257.125977	7270.529297
255.839844	7257.473633
254.554688	7174.427734
253.268555	7324.683594
251.982422	7334.946289
250.695312	7218.898438
249.409180	7328.259277
248.122070	7389.017578
246.833984	7335.170898
245.546875	7267.751953
244.258789	7380.901855
242.970703	7177.632812
241.682617	7265.528320
240.394531	7176.830566
239.105469	7161.880371
237.816406	7154.693359
236.527344	7236.707520
235.237305	7260.527832
233.948242	7381.256348
232.658203	7397.287598
231.368164	7463.689941
230.077148	7855.523438
228.786133	8038.024902
227.495117	8220.456055
226.204102	7965.250488
224.913086	7739.179199
223.621094	7306.106445
222.329102	7266.008789
221.037109	7102.108398
219.744141	6988.561523
218.451172	7047.176270
217.158203	7086.432129
215.865234	6938.155762
214.572266	6815.061523
213.278320	6978.014160
211.984375	6897.464355
210.690430	6938.642090
209.395508	6800.189941
208.100586	6752.545410
206.805664	6867.088379
205.510742	6744.170410
204.215820	6752.528320
202.919922	6747.376953
201.624023	6782.737793
200.327148	6816.156738
199.031250	6610.444336
197.734375	6695.938477
196.437500	6602.129883
195.140625	6570.029297
193.842773	6713.288086
192.544922	6783.283203
191.247070	6610.556152
189.949219	6559.219727
188.650391	6723.548828
187.352539	6664.508789
186.052734	6655.533203
184.753906	6511.858887
183.455078	6645.287109
182.155273	6649.784180
180.855469	6646.586426
179.554688	6510.713867
178.254883	6476.784180
176.954102	6633.154297
175.653320	6666.473633
174.351562	6617.161621
173.049805	6498.712402
171.749023	6507.069336
170.446289	6455.895020
169.144531	6385.541016
167.841797	6461.097168
166.539062	6471.372559
165.236328	6579.501953
163.933594	6465.053223
162.629883	6529.026367
161.326172	6374.359375
160.022461	6260.015137
158.718750	6377.664551
157.414062	6368.774414
156.109375	6371.384277
154.804688	6387.404297
153.499023	6349.784180
152.193359	6379.207031
150.887695	6301.393066
149.582031	6137.461914
148.276367	6316.199707
146.969727	6357.086914
145.663086	6176.019531
144.356445	6283.868652
143.048828	6255.886230
141.741211	6222.178223
140.433594	6113.922363
139.125977	6108.925293
137.817383	6155.528320
136.508789	6104.667480
135.200195	6036.633301
133.891602	5976.264648
132.582031	5881.546387
131.273438	5889.961914
129.962891	5762.845703
128.653320	5672.039062
127.342773	5611.796875
126.033203	5542.038574
124.721680	5460.862793
123.411133	5373.997070
122.099609	5138.444824
120.788086	5011.641602
119.476562	4850.580078
