#Wave		#Intensity
1999.066406	290324.562500
1998.098633	290613.906250
1997.129883	290707.906250
1996.162109	291065.250000
1995.194336	290162.468750
1994.225586	290535.250000
1993.256836	290944.062500
1992.288086	290204.312500
1991.319336	291116.125000
1990.350586	290533.937500
1989.380859	291045.562500
1988.411133	290698.250000
1987.442383	291859.406250
1986.472656	291612.593750
1985.501953	291139.031250
1984.532227	291647.468750
1983.561523	291918.687500
1982.591797	291628.187500
1981.621094	291304.312500
1980.650391	290890.406250
1979.678711	290401.937500
1978.708008	291970.531250
1977.736328	291852.687500
1976.765625	291503.250000
1975.793945	292337.500000
1974.821289	291362.937500
1973.849609	291546.187500
1972.877930	292482.812500
1971.905273	292007.531250
1970.932617	291851.156250
1969.959961	292152.375000
1968.987305	292602.500000
1968.014648	290837.625000
1967.041016	291940.343750
1966.067383	291871.406250
1965.094727	292798.875000
1964.121094	292467.875000
1963.146484	292234.562500
1962.172852	293146.062500
1961.198242	292756.125000
1960.224609	292486.906250
1959.250000	291902.250000
1958.275391	292515.593750
1957.299805	292390.125000
1956.325195	293000.593750
1955.349609	292559.750000
1954.375000	292047.281250
1953.399414	293316.062500
1952.423828	291350.843750
1951.447266	291535.625000
1950.471680	291815.125000
1949.495117	292873.000000
1948.518555	292540.187500
1947.541992	292550.500000
1946.565430	292051.468750
1945.588867	292261.468750
1944.611328	292033.843750
1943.633789	292676.093750
1942.657227	292187.562500
1941.679688	292512.437500
1940.701172	292880.625000
1939.723633	292550.781250
1938.745117	292374.406250
1937.767578	292816.500000
1936.789062	292586.468750
1935.810547	291853.218750
1934.831055	292182.781250
1933.852539	292348.750000
1932.873047	291917.187500
1931.893555	292851.562500
1930.914062	292432.812500
1929.934570	292470.968750
1928.955078	292787.250000
1927.974609	292912.062500
1926.995117	292896.531250
1926.014648	290774.593750
1925.034180	291498.843750
1924.053711	291093.500000
1923.072266	291960.156250
1922.091797	292609.875000
1921.110352	291621.031250
1920.128906	291633.718750
1919.147461	291529.187500
1918.166016	291409.406250
1917.183594	291091.093750
1916.202148	291635.843750
1915.219727	291569.531250
1914.237305	291744.968750
1913.254883	292032.312500
1912.271484	292166.906250
1911.289062	290554.062500
1910.305664	291960.375000
1909.322266	290699.000000
1908.338867	292257.281250
1907.355469	291115.718750
1906.372070	291583.156250
1905.387695	291427.937500
1904.403320	290409.031250
1903.419922	291887.218750
1902.434570	290797.437500
1901.450195	291152.750000
1900.465820	290418.875000
1899.480469	291543.187500
1898.495117	290611.531250
1897.509766	291522.250000
1896.524414	291230.187500
1895.539062	291470.843750
1894.552734	291265.093750
1893.567383	290714.562500
1892.581055	291791.718750
1891.594727	291033.437500
1890.608398	290577.000000
1889.621094	290614.750000
1888.634766	291146.468750
1887.647461	290550.906250
1886.660156	290884.906250
1885.672852	290798.468750
1884.685547	291099.375000
1883.697266	290352.312500
1882.709961	290248.250000
1881.721680	288924.718750
1880.733398	290596.781250
1879.745117	289931.218750
1878.755859	290563.187500
1877.767578	290287.218750
1876.778320	290810.156250
1875.789062	290883.000000
1874.799805	289955.093750
1873.810547	290871.937500
1872.821289	289277.437500
1871.831055	289704.062500
1870.840820	290074.968750
1869.850586	289637.781250
1868.860352	291366.656250
1867.870117	290846.093750
1866.879883	291097.875000
1865.888672	289886.218750
1864.897461	290221.312500
1863.906250	289847.562500
1862.915039	291181.125000
1861.923828	291692.250000
1860.931641	289576.500000
1859.939453	290594.343750
1858.947266	290641.593750
1857.955078	290646.031250
1856.962891	290411.125000
1855.970703	290347.531250
1854.977539	289843.312500
1853.984375	290706.343750
1852.991211	291526.312500
1851.998047	290845.906250
1851.004883	291300.625000
1850.010742	291322.437500
1849.017578	290868.812500
1848.023438	290822.750000
1847.029297	291523.562500
1846.035156	291391.906250
1845.040039	290946.062500
1844.045898	290648.656250
1843.050781	290876.531250
1842.055664	290224.968750
1841.060547	290950.187500
1840.065430	290738.343750
1839.069336	292369.718750
1838.073242	290832.031250
1837.078125	290778.406250
1836.082031	291758.843750
1835.084961	291173.062500
1834.088867	290828.375000
1833.092773	292086.687500
1832.095703	290064.031250
1831.098633	289659.468750
1830.101562	291421.218750
1829.104492	290710.750000
1828.106445	292098.250000
1827.109375	290405.562500
1826.111328	292015.593750
1825.113281	291220.281250
1824.115234	291376.937500
1823.116211	291563.593750
1822.118164	290435.781250
1821.119141	291135.656250
1820.120117	290391.187500
1819.121094	290320.093750
1818.122070	291885.250000
1817.122070	291333.625000
1816.123047	290059.406250
1815.123047	290983.593750
1814.123047	291599.937500
1813.123047	290368.781250
1812.123047	291327.375000
1811.122070	290219.125000
1810.122070	290325.468750
1809.121094	289909.687500
1808.120117	291304.718750
1807.118164	290202.187500
1806.117188	289923.937500
1805.115234	290846.406250
1804.114258	290328.531250
1803.112305	289913.093750
1802.110352	290119.031250
1801.107422	290941.000000
1800.105469	289675.250000
1799.102539	291005.656250
1798.099609	289894.843750
1797.096680	289858.781250
1796.093750	289660.687500
1795.090820	290414.531250
1794.086914	289705.687500
1793.083008	289278.531250
1792.079102	290081.812500
1791.075195	290105.406250
1790.071289	290049.343750
1789.067383	290050.531250
1788.062500	288237.437500
1787.057617	288766.437500
1786.052734	288635.937500
1785.047852	289696.937500
1784.041992	289708.093750
1783.037109	289475.531250
1782.031250	287497.812500
1781.025391	287829.937500
1780.019531	288832.937500
1779.013672	289584.593750
1778.006836	288865.281250
1777.000977	287877.968750
1775.994141	288535.000000
1774.987305	287850.968750
1773.980469	288147.781250
1772.972656	288236.000000
1771.965820	288299.343750
1770.958008	288551.218750
1769.950195	287398.875000
1768.942383	287256.406250
1767.934570	287823.250000
1766.925781	287117.906250
1765.917969	287439.156250
1764.909180	286924.937500
1763.900391	286861.937500
1762.891602	286511.562500
1761.881836	286007.656250
1760.873047	286722.562500
1759.863281	287028.593750
1758.853516	287235.468750
1757.843750	287137.750000
1756.833984	286426.218750
1755.823242	286969.625000
1754.812500	286362.281250
1753.802734	286435.437500
1752.791992	287290.125000
1751.780273	285998.031250
1750.769531	285551.937500
1749.757812	286337.093750
1748.747070	285698.312500
1747.735352	286025.968750
1746.723633	285110.718750
1745.710938	285752.093750
1744.699219	285281.750000
1743.686523	285863.562500
1742.673828	285729.156250
1741.661133	284464.156250
1740.648438	286109.531250
1739.635742	285525.968750
1738.622070	284387.500000
1737.608398	284993.437500
1736.594727	285868.000000
1735.581055	285124.593750
1734.567383	285722.656250
1733.552734	284242.437500
1732.539062	284073.906250
1731.524414	284861.562500
1730.509766	285156.156250
1729.495117	284255.906250
1728.479492	284355.937500
1727.464844	284726.781250
1726.449219	283408.500000
1725.433594	285999.718750
1724.417969	283741.500000
1723.401367	284663.343750
1722.385742	285100.187500
1721.369141	284147.000000
1720.352539	284104.156250
1719.335938	284098.187500
1718.319336	283939.812500
1717.301758	283221.000000
1716.285156	284370.281250
1715.267578	284492.000000
1714.250000	285586.562500
1713.232422	283453.062500
1712.213867	284355.843750
1711.196289	283721.125000
1710.177734	285058.093750
1709.159180	283966.875000
1708.140625	283528.906250
1707.122070	283633.343750
1706.102539	284059.093750
1705.083984	284359.625000
1704.064453	284863.562500
1703.044922	283984.375000
1702.025391	283468.343750
1701.004883	284457.468750
1699.985352	283799.343750
1698.964844	283798.125000
1697.944336	284482.875000
1696.923828	283611.968750
1695.903320	284012.375000
1694.881836	283986.593750
1693.860352	284151.781250
1692.838867	283802.843750
1691.817383	282969.468750
1690.795898	283301.093750
1689.774414	283043.000000
1688.751953	282890.125000
1687.729492	283351.156250
1686.707031	282252.031250
1685.684570	284106.468750
1684.662109	283706.625000
1683.638672	283456.000000
1682.616211	284932.906250
1681.592773	282820.562500
1680.569336	283322.500000
1679.544922	283238.125000
1678.521484	283082.937500
1677.497070	281963.531250
1676.472656	283387.812500
1675.448242	282014.937500
1674.423828	282457.843750
1673.399414	282551.718750
1672.374023	282516.281250
1671.348633	283858.656250
1670.323242	283393.875000
1669.297852	282207.656250
1668.272461	283039.937500
1667.246094	282436.593750
1666.220703	281899.218750
1665.194336	282616.625000
1664.167969	283029.281250
1663.140625	282557.812500
1662.114258	281611.718750
1661.086914	281776.000000
1660.059570	281244.156250
1659.032227	281376.781250
1658.004883	282081.125000
1656.977539	280598.281250
1655.949219	279497.843750
1654.921875	281741.375000
1653.893555	280575.437500
1652.865234	280836.812500
1651.835938	280176.968750
1650.807617	279541.625000
1649.778320	279521.187500
1648.749023	280100.750000
1647.719727	279618.750000
1646.690430	279734.250000
1645.660156	280301.281250
1644.630859	278996.562500
1643.600586	279413.031250
1642.570312	278819.875000
1641.540039	278428.312500
1640.508789	278968.343750
1639.478516	279384.468750
1638.447266	277799.968750
1637.416016	277602.750000
1636.384766	278964.218750
1635.353516	277780.468750
1634.321289	277634.218750
1633.290039	276955.031250
1632.257812	276588.531250
1631.225586	277094.031250
1630.192383	276705.812500
1629.160156	276448.468750
1628.126953	277210.250000
1627.094727	276672.156250
1626.061523	276441.531250
1625.027344	275756.156250
1623.994141	275866.812500
1622.959961	275788.781250
1621.926758	275536.687500
1620.892578	276099.343750
1619.858398	275356.593750
1618.823242	275696.750000
1617.789062	274913.218750
1616.753906	275502.125000
1615.718750	274276.875000
1614.683594	274513.093750
1613.648438	275529.093750
1612.612305	274277.906250
1611.577148	274917.031250
1610.541016	274848.843750
1609.504883	273938.625000
1608.468750	273967.125000
1607.431641	274219.906250
1606.395508	273225.812500
1605.358398	273131.437500
1604.321289	273061.156250
1603.284180	272884.843750
1602.247070	272718.250000
1601.208984	273681.656250
1600.170898	272387.562500
1599.132812	272996.656250
1598.094727	272276.218750
1597.056641	272560.031250
1596.018555	272687.281250
1594.979492	272790.375000
1593.940430	273410.812500
1592.901367	273256.312500
1591.862305	272613.531250
1590.822266	272959.437500
1589.783203	273153.750000
1588.743164	272066.500000
1587.703125	272282.500000
1586.663086	272669.031250
1585.622070	271279.656250
1584.582031	272627.218750
1583.541016	271620.250000
1582.500000	271490.250000
1581.458984	272018.187500
1580.417969	271681.687500
1579.375977	271006.812500
1578.334961	271767.312500
1577.292969	271738.125000
1576.250977	270802.062500
1575.208008	270931.343750
1574.166016	272322.031250
1573.123047	270578.250000
1572.081055	272069.187500
1571.037109	271630.000000
1569.994141	272573.781250
1568.951172	272026.843750
1567.907227	271999.937500
1566.863281	271486.781250
1565.820312	271812.000000
1564.775391	270903.968750
1563.731445	271332.093750
1562.686523	271228.687500
1561.642578	271079.843750
1560.597656	271510.062500
1559.552734	271354.000000
1558.506836	271523.281250
1557.461914	271101.843750
1556.416016	271218.468750
1555.370117	270574.875000
1554.324219	270423.875000
1553.278320	271448.625000
1552.231445	271161.281250
1551.185547	270847.781250
1550.138672	270622.718750
1549.091797	270753.562500
1548.044922	271801.156250
1546.997070	270110.343750
1545.950195	271501.343750
1544.902344	271505.406250
1543.854492	271087.156250
1542.806641	269781.687500
1541.757812	269938.656250
1540.709961	269184.656250
1539.661133	271032.031250
1538.612305	270497.375000
1537.563477	270065.406250
1536.514648	270639.125000
1535.464844	271122.125000
1534.415039	269025.187500
1533.366211	270289.437500
1532.316406	270210.218750
1531.265625	269400.156250
1530.215820	269656.750000
1529.165039	269653.812500
1528.114258	268503.968750
1527.063477	269098.375000
1526.012695	269290.562500
1524.960938	269974.968750
1523.910156	268973.281250
1522.858398	268587.656250
1521.806641	268958.031250
1520.754883	267804.906250
1519.702148	267949.531250
1518.650391	268350.656250
1517.597656	268606.750000
1516.544922	267912.812500
1515.492188	268240.125000
1514.439453	266518.531250
1513.385742	267603.093750
1512.332031	267163.718750
1511.278320	266681.781250
1510.224609	267509.500000
1509.170898	267200.781250
1508.116211	267430.468750
1507.062500	267702.750000
1506.007812	267752.093750
1504.953125	266822.531250
1503.897461	267350.687500
1502.842773	265826.812500
1501.787109	266189.093750
1500.731445	267183.625000
1499.675781	266015.781250
1498.620117	265916.125000
1497.563477	265369.093750
1496.507812	265312.187500
1495.451172	264564.281250
1494.394531	265744.875000
1493.337891	265068.125000
1492.280273	264897.718750
1491.223633	264980.406250
1490.166016	264649.281250
1489.108398	264708.312500
1488.050781	263888.125000
1486.992188	263469.937500
1485.934570	263914.187500
1484.875977	263066.218750
1483.817383	263666.250000
1482.758789	262868.156250
1481.699219	262936.812500
1480.640625	262382.250000
1479.581055	263123.531250
1478.521484	262177.437500
1477.461914	262979.781250
1476.402344	261868.921875
1475.341797	262671.031250
1474.282227	261933.140625
1473.221680	262947.093750
1472.161133	261726.218750
1471.099609	262782.250000
1470.039062	262282.781250
1468.977539	261571.484375
1467.916016	260829.812500
1466.854492	260849.031250
1465.792969	261515.734375
1464.730469	261247.593750
1463.668945	260546.484375
1462.606445	260652.765625
1461.543945	260366.078125
1460.481445	261180.406250
1459.417969	260380.968750
1458.354492	260146.187500
1457.291992	260146.593750
1456.228516	259803.781250
1455.164062	260081.562500
1454.100586	260770.453125
1453.036133	259469.109375
1451.971680	259965.218750
1450.907227	259824.687500
1449.842773	260123.281250
1448.778320	259290.140625
1447.712891	258276.546875
1446.648438	258418.000000
1445.583008	258876.156250
1444.516602	258245.562500
1443.451172	258363.453125
1442.384766	258525.843750
1441.319336	258127.750000
1440.252930	257847.015625
1439.186523	257871.078125
1438.119141	257288.140625
1437.052734	257277.140625
1435.985352	258184.468750
1434.917969	257034.921875
1433.850586	258227.671875
1432.782227	256926.312500
1431.714844	256856.796875
1430.646484	256604.734375
1429.578125	256525.921875
1428.509766	256692.796875
1427.441406	256529.750000
1426.372070	255803.078125
1425.303711	257307.609375
1424.234375	255711.250000
1423.165039	257018.859375
1422.094727	256530.984375
1421.025391	255961.468750
1419.955078	254978.609375
1418.884766	255007.578125
1417.814453	254620.781250
1416.744141	255369.015625
1415.672852	255622.000000
1414.602539	255608.781250
1413.531250	255215.109375
1412.459961	255943.984375
1411.388672	255641.375000
1410.316406	254667.062500
1409.244141	254623.640625
1408.172852	255317.078125
1407.099609	255182.609375
1406.027344	253882.703125
1404.955078	253944.281250
1403.881836	254301.765625
1402.808594	253680.625000
1401.735352	253439.359375
1400.662109	253421.765625
1399.588867	254170.218750
1398.514648	253761.359375
1397.440430	253773.921875
1396.366211	252725.281250
1395.291992	252700.781250
1394.216797	253534.718750
1393.142578	252507.578125
1392.067383	252599.390625
1390.992188	252672.546875
1389.916992	253294.296875
1388.840820	252621.187500
1387.765625	251553.250000
1386.689453	252221.296875
1385.613281	252280.468750
1384.537109	251977.281250
1383.459961	251513.953125
1382.383789	251522.109375
1381.306641	251514.000000
1380.229492	251060.265625
1379.152344	251567.375000
1378.074219	251545.296875
1376.997070	250583.765625
1375.918945	251273.875000
1374.840820	250254.734375
1373.762695	250161.000000
1372.683594	250468.312500
1371.605469	250305.031250
1370.526367	251036.234375
1369.447266	249814.125000
1368.368164	249838.640625
1367.288086	249487.953125
1366.208984	249352.718750
1365.128906	248986.031250
1364.048828	249742.062500
1362.968750	249072.250000
1361.887695	249175.468750
1360.807617	248732.687500
1359.726562	248488.968750
1358.645508	249454.812500
1357.564453	248191.359375
1356.482422	249270.156250
1355.401367	248608.125000
1354.319336	248473.203125
1353.237305	248197.390625
1352.155273	248640.093750
1351.073242	248267.312500
1349.990234	248940.750000
1348.907227	248200.921875
1347.824219	247821.468750
1346.741211	247052.093750
1345.658203	247392.921875
1344.574219	247579.046875
1343.490234	248005.000000
1342.406250	247725.046875
1341.322266	248332.953125
1340.238281	248182.125000
1339.153320	247810.046875
1338.068359	247295.218750
1336.983398	247239.093750
1335.898438	246231.500000
1334.813477	246023.546875
1333.727539	247731.765625
1332.641602	247337.093750
1331.556641	246187.421875
1330.469727	246819.734375
1329.383789	245967.421875
1328.296875	246357.937500
1327.210938	246920.828125
1326.124023	246213.843750
1325.036133	246001.531250
1323.949219	245184.578125
1322.861328	246066.781250
1321.774414	245206.421875
1320.686523	246060.687500
1319.597656	246066.828125
1318.509766	245583.640625
1317.420898	245031.718750
1316.333008	245090.828125
1315.244141	245342.750000
1314.154297	244940.343750
1313.065430	244290.203125
1311.975586	245046.953125
1310.886719	244071.218750
1309.796875	244579.968750
1308.706055	243795.000000
1307.616211	244028.437500
1306.525391	242668.375000
1305.435547	244054.890625
1304.344727	243435.562500
1303.252930	243847.578125
1302.162109	243015.421875
1301.070312	243037.937500
1299.979492	242400.875000
1298.887695	242787.546875
1297.794922	242187.359375
1296.703125	241580.515625
1295.610352	242358.437500
1294.517578	241548.125000
1293.424805	241888.796875
1292.332031	241415.062500
1291.239258	240843.156250
1290.145508	240865.921875
1289.051758	240031.421875
1287.958008	240867.984375
1286.864258	240369.671875
1285.769531	240342.203125
1284.675781	240257.625000
1283.581055	240150.234375
1282.486328	239547.328125
1281.391602	239599.890625
1280.295898	239951.468750
1279.201172	239508.656250
1278.105469	238723.718750
1277.009766	239056.984375
1275.913086	238838.093750
1274.817383	238338.750000
1273.720703	238772.203125
1272.624023	238480.484375
1271.527344	238462.406250
1270.430664	237129.328125
1269.333008	237701.640625
1268.236328	237528.765625
1267.138672	238002.828125
1266.041016	237062.468750
1264.942383	238194.468750
1263.844727	236657.937500
1262.746094	235652.281250
1261.647461	236139.859375
1260.548828	236652.281250
1259.450195	236124.890625
1258.350586	236245.890625
1257.250977	235263.921875
1256.152344	236208.078125
1255.051758	235842.500000
1253.952148	235329.312500
1252.852539	236018.406250
1251.751953	234816.921875
1250.651367	235212.812500
1249.550781	235047.546875
1248.449219	234662.078125
1247.348633	234751.250000
1246.247070	234724.593750
1245.145508	233998.937500
1244.043945	233838.531250
1242.941406	234420.062500
1241.839844	233685.734375
1240.737305	234598.171875
1239.634766	233898.078125
1238.532227	233857.937500
1237.428711	233545.812500
1236.326172	233392.437500
1235.222656	233372.781250
1234.119141	233790.343750
1233.015625	233052.593750
1231.911133	233381.734375
1230.807617	232823.171875
1229.703125	233186.171875
1228.598633	232661.781250
1227.493164	233787.265625
1226.388672	233204.109375
1225.283203	232634.734375
1224.177734	232818.703125
1223.072266	233746.578125
1221.966797	234020.703125
1220.861328	232079.421875
1219.754883	233282.625000
1218.648438	232001.984375
1217.541992	231799.468750
1216.435547	232814.562500
1215.328125	232176.078125
1214.220703	232264.890625
1213.113281	232371.750000
1212.005859	231851.031250
1210.898438	233336.812500
1209.790039	232678.453125
1208.682617	231672.890625
1207.574219	232314.281250
1206.464844	231755.656250
1205.356445	231817.296875
1204.248047	231669.250000
1203.138672	231059.171875
1202.029297	231467.921875
1200.919922	231899.046875
1199.809570	231604.609375
1198.700195	231179.656250
1197.589844	232018.156250
1196.479492	231419.875000
1195.368164	231404.843750
1194.257812	230606.578125
1193.146484	231287.015625
1192.036133	231204.484375
1190.923828	231032.000000
1189.812500	231289.140625
1188.701172	231431.500000
1187.588867	230573.328125
1186.476562	231477.750000
1185.364258	231042.375000
1184.251953	230297.062500
1183.138672	229992.343750
1182.026367	230586.203125
1180.913086	230128.812500
1179.799805	231263.546875
1178.685547	230536.781250
1177.572266	229311.984375
1176.458008	229218.656250
1175.343750	229722.203125
1174.229492	230252.468750
1173.114258	229990.781250
1172.000000	228287.250000
1170.884766	229786.031250
1169.769531	229629.906250
1168.654297	229601.578125
1167.538086	229432.078125
1166.422852	227786.156250
1165.306641	228401.046875
1164.190430	228664.078125
1163.074219	228342.546875
1161.957031	227689.796875
1160.840820	228075.890625
1159.723633	227875.484375
1158.606445	227943.640625
1157.488281	227588.937500
1156.371094	227607.890625
1155.252930	227146.015625
1154.134766	227636.828125
1153.016602	226385.921875
1151.898438	226525.750000
1150.779297	226964.968750
1149.661133	226311.421875
1148.541992	225633.531250
1147.421875	226930.328125
1146.302734	225211.906250
1145.183594	226293.953125
1144.063477	225330.781250
1142.943359	225445.953125
1141.823242	225326.781250
1140.702148	224808.265625
1139.581055	223968.718750
1138.460938	224808.875000
1137.339844	224678.703125
1136.217773	222820.734375
1135.096680	224113.109375
1133.974609	223622.078125
1132.852539	223786.312500
1131.730469	223464.812500
1130.608398	223691.375000
1129.485352	223955.687500
1128.363281	223932.671875
1127.240234	223724.875000
1126.117188	223223.343750
1124.993164	222693.046875
1123.870117	222623.500000
1122.746094	222938.843750
1121.622070	222077.453125
1120.498047	222161.484375
1119.373047	222192.109375
1118.249023	221989.296875
1117.124023	221668.750000
1115.999023	221726.093750
1114.874023	221507.890625
1113.748047	220701.109375
1112.623047	221777.968750
1111.497070	221191.250000
1110.371094	221561.609375
1109.244141	221758.687500
1108.118164	221079.046875
1106.991211	221311.625000
1105.864258	220809.765625
1104.737305	221439.328125
1103.610352	220478.562500
1102.482422	220861.812500
1101.355469	220641.921875
1100.227539	220249.203125
1099.098633	219351.359375
1097.970703	220179.859375
1096.841797	220923.859375
1095.713867	220232.328125
1094.584961	220183.250000
1093.455078	220368.875000
1092.326172	220543.343750
1091.196289	220472.062500
1090.066406	219880.796875
1088.936523	220201.250000
1087.806641	219900.000000
1086.675781	218999.484375
1085.545898	219019.171875
1084.415039	219646.812500
1083.284180	218868.390625
1082.152344	220101.375000
1081.021484	219555.140625
1079.889648	219925.921875
1078.757812	219664.828125
1077.625977	219180.781250
1076.493164	219310.734375
1075.361328	218860.015625
1074.228516	218727.296875
1073.095703	218632.140625
1071.962891	220017.500000
1070.829102	218545.562500
1069.695312	219440.765625
1068.561523	218710.406250
1067.427734	219521.453125
1066.293945	219144.031250
1065.159180	219815.828125
1064.025391	218008.343750
1062.890625	218400.281250
1061.755859	219265.671875
1060.620117	218553.828125
1059.485352	218447.781250
1058.349609	218524.484375
1057.213867	217533.593750
1056.078125	218539.140625
1054.941406	218767.578125
1053.804688	218404.156250
1052.668945	218496.140625
1051.531250	218141.671875
1050.394531	217294.796875
1049.257812	217323.156250
1048.120117	216997.640625
1046.982422	217799.562500
1045.844727	216975.312500
1044.706055	217895.546875
1043.568359	217750.218750
1042.429688	217279.937500
1041.291016	216173.109375
1040.152344	216974.250000
1039.012695	216539.453125
1037.874023	216765.296875
1036.734375	215913.843750
1035.594727	217076.328125
1034.454102	216334.750000
1033.314453	216203.015625
1032.173828	215974.859375
1031.033203	215970.359375
1029.892578	216388.796875
1028.751953	216005.140625
1027.610352	215847.250000
1026.468750	215144.031250
1025.327148	216245.515625
1024.185547	215811.765625
1023.043945	215680.265625
1021.901367	215448.109375
1020.758789	214557.359375
1019.616211	215296.906250
1018.473633	214327.750000
1017.330078	214773.984375
1016.187500	214583.703125
1015.043945	213949.687500
1013.900391	214719.218750
1012.755859	213899.609375
1011.612305	214376.046875
1010.467773	214732.156250
1009.323242	214334.531250
1008.178711	214255.890625
1007.033203	214107.406250
1005.887695	213849.812500
1004.743164	214155.437500
1003.597656	213553.109375
1002.451172	213653.546875
1001.305664	213348.187500
1000.159180	213956.812500
999.012695	213557.718750
997.866211	213420.406250
996.718750	214022.109375
995.572266	212522.562500
994.424805	213836.750000
993.277344	213054.562500
992.129883	213056.828125
990.981445	213359.625000
989.833984	213052.609375
988.685547	212103.468750
987.537109	212848.109375
986.387695	213050.578125
985.239258	212260.765625
984.089844	212967.953125
982.940430	213444.312500
981.791016	213148.484375
980.640625	211867.812500
979.491211	212526.703125
978.340820	212444.171875
977.190430	212033.531250
976.040039	212105.375000
974.888672	212468.265625
973.738281	212917.875000
972.586914	212933.031250
971.434570	212533.484375
970.283203	212136.250000
969.131836	212908.921875
967.979492	212318.625000
966.827148	212529.078125
965.674805	212518.203125
964.521484	212349.000000
963.368164	212934.406250
962.215820	213226.937500
961.061523	212216.671875
959.908203	211895.921875
958.754883	211510.265625
957.600586	211289.390625
956.446289	211246.187500
955.291992	211387.046875
954.136719	211369.812500
952.982422	211389.359375
951.827148	211428.375000
950.671875	212270.171875
949.516602	210987.093750
948.360352	211491.203125
947.204102	211582.031250
946.048828	210539.765625
944.891602	210557.218750
943.735352	210803.781250
942.578125	211192.875000
941.421875	210654.859375
940.264648	211458.593750
939.106445	210056.750000
937.949219	210586.015625
936.791016	210413.359375
935.632812	210612.078125
934.474609	210499.890625
933.316406	209835.312500
932.157227	210243.281250
930.999023	210635.968750
929.839844	209924.265625
928.680664	209447.843750
927.520508	209327.328125
926.360352	210304.015625
925.201172	209383.796875
924.041016	209892.515625
922.879883	208880.062500
921.719727	209207.734375
920.558594	208350.828125
919.397461	208693.531250
918.236328	208015.687500
917.075195	207193.875000
915.913086	208012.156250
914.750977	207861.921875
913.588867	207421.312500
912.426758	207748.703125
911.263672	207559.859375
910.101562	207220.578125
908.938477	208022.859375
907.775391	207808.250000
906.611328	207172.546875
905.448242	207125.734375
904.284180	207259.375000
903.120117	207326.359375
901.956055	206755.593750
900.791016	206373.953125
899.625977	206520.468750
898.461914	206405.093750
897.295898	206534.359375
896.130859	206292.453125
894.964844	206348.750000
893.799805	206625.890625
892.633789	206281.140625
891.466797	206112.296875
890.300781	206633.640625
889.133789	206436.921875
887.966797	205734.640625
886.799805	205428.890625
885.632812	205333.125000
884.465820	206299.468750
883.297852	205837.468750
882.129883	205666.734375
880.961914	205755.015625
879.792969	205460.250000
878.624023	206064.078125
877.456055	205623.890625
876.287109	204918.687500
875.117188	204880.828125
873.948242	205616.828125
872.778320	205929.343750
871.608398	205500.234375
870.438477	204825.562500
869.267578	206097.156250
868.097656	204745.578125
866.926758	205636.609375
865.755859	205506.796875
864.583984	205938.406250
863.413086	205930.218750
862.241211	205399.234375
861.069336	204842.843750
859.897461	205673.093750
858.725586	205765.140625
857.552734	204916.859375
856.379883	205113.453125
855.207031	205454.906250
854.034180	205465.921875
852.860352	205304.328125
851.686523	205899.031250
850.512695	205403.015625
849.338867	205484.265625
848.165039	204988.500000
846.990234	205474.218750
845.815430	204882.843750
844.640625	205066.218750
843.465820	207045.109375
842.290039	205481.671875
841.115234	205167.171875
839.939453	205271.656250
838.762695	205731.109375
837.586914	205667.515625
836.410156	205914.203125
835.233398	205952.562500
834.056641	205867.687500
832.879883	205062.828125
831.703125	205432.578125
830.525391	205504.937500
829.347656	205715.234375
828.169922	205711.078125
826.991211	205883.046875
825.812500	205030.234375
824.634766	205306.171875
823.455078	205643.515625
822.276367	205126.203125
821.097656	205359.562500
819.917969	204838.234375
818.738281	205183.843750
817.558594	205486.953125
816.377930	205993.296875
815.197266	205700.953125
814.017578	205478.593750
812.835938	205374.859375
811.655273	205127.218750
810.474609	205713.546875
809.292969	204905.156250
808.111328	204930.640625
806.929688	204827.062500
805.747070	204353.406250
804.564453	205985.953125
803.381836	205966.781250
802.199219	205368.453125
801.016602	204806.250000
799.833008	204738.671875
798.650391	204202.125000
797.466797	204857.031250
796.282227	204084.125000
795.098633	203623.984375
793.914062	204711.359375
792.729492	203919.890625
791.544922	204892.828125
790.360352	203968.671875
789.174805	203302.218750
787.989258	204487.703125
786.803711	203427.062500
785.618164	204451.843750
784.431641	203967.031250
783.246094	204175.734375
782.059570	203467.781250
780.872070	203832.359375
779.685547	202760.328125
778.498047	202625.812500
777.310547	202933.468750
776.123047	203739.921875
774.935547	203464.250000
773.747070	203035.046875
772.559570	202776.421875
771.371094	203125.796875
770.181641	203594.921875
768.993164	201427.000000
767.803711	202915.890625
766.614258	202680.593750
765.424805	202291.953125
764.235352	202519.109375
763.044922	203038.187500
761.855469	202101.468750
760.665039	202723.312500
759.473633	202780.109375
758.283203	202809.578125
757.091797	202274.437500
755.900391	202392.125000
754.708984	201995.718750
753.517578	201104.390625
752.325195	201954.156250
751.132812	202296.125000
749.940430	201990.156250
748.748047	201728.296875
747.554688	201738.968750
746.361328	201577.812500
745.167969	202237.937500
743.974609	200981.265625
742.781250	201513.484375
741.586914	201235.203125
740.392578	201003.078125
739.198242	200865.203125
738.003906	202330.312500
736.808594	201572.937500
735.613281	201066.843750
734.417969	201707.046875
733.222656	201475.031250
732.027344	200923.218750
730.831055	201820.156250
729.634766	200712.562500
728.438477	201113.984375
727.241211	201183.078125
726.044922	200755.015625
724.847656	201030.875000
723.650391	200953.765625
722.452148	200528.046875
721.254883	201256.687500
720.056641	201409.093750
718.858398	201369.484375
717.660156	200804.203125
716.460938	200718.812500
715.262695	200979.609375
714.063477	201573.859375
712.864258	200808.828125
711.664062	200421.281250
710.464844	200846.500000
709.264648	200984.046875
708.064453	201302.765625
706.863281	200330.187500
705.663086	200682.203125
704.461914	200301.296875
703.260742	200186.937500
702.059570	200016.437500
700.858398	200855.046875
699.656250	201951.281250
698.454102	201017.234375
697.251953	200129.265625
696.048828	200210.437500
694.846680	200083.718750
693.643555	199807.390625
692.440430	200530.609375
691.237305	200748.718750
690.033203	200239.765625
688.830078	201637.390625
687.625977	200800.390625
686.420898	200470.218750
685.216797	200237.703125
684.011719	200484.625000
682.806641	200304.046875
681.601562	200179.531250
680.396484	200490.593750
679.190430	200111.015625
677.985352	199928.531250
676.778320	200923.468750
675.572266	199843.515625
674.366211	200653.656250
673.159180	199375.281250
671.952148	199518.234375
670.745117	200073.234375
669.537109	200244.984375
668.330078	200658.859375
667.122070	200023.234375
665.914062	199667.187500
664.705078	199594.718750
663.497070	199567.765625
662.288086	199224.375000
661.079102	199577.968750
659.870117	199792.890625
658.660156	199807.218750
657.450195	199633.484375
656.240234	198860.593750
655.030273	198947.359375
653.820312	198133.562500
652.609375	198858.531250
651.398438	198385.703125
650.187500	199056.671875
648.976562	198422.968750
647.764648	198173.328125
646.552734	197977.406250
645.340820	197853.734375
644.128906	197992.031250
642.916992	198268.421875
641.704102	197027.359375
640.491211	197602.671875
639.278320	197780.031250
638.064453	197813.093750
636.850586	197489.718750
635.637695	197281.812500
634.422852	197133.703125
633.208984	197203.875000
631.994141	196788.187500
630.780273	196942.765625
629.564453	196654.859375
628.349609	196737.375000
627.134766	197161.312500
625.918945	197406.140625
624.703125	196312.296875
623.487305	196551.015625
622.270508	196561.484375
621.053711	197038.437500
619.836914	197165.921875
618.620117	196305.218750
617.403320	196531.359375
616.185547	196295.343750
614.967773	196675.359375
613.750000	197502.718750
612.532227	195932.609375
611.313477	197221.468750
610.094727	196550.578125
608.875977	196013.250000
607.657227	195956.015625
606.438477	195868.031250
605.218750	197311.453125
603.999023	196427.953125
602.779297	195979.234375
601.558594	195719.171875
600.338867	196051.203125
599.118164	195445.078125
597.896484	195934.703125
596.675781	195824.250000
595.454102	194770.187500
594.233398	196029.156250
593.011719	195415.359375
591.789062	195327.562500
590.567383	195904.562500
589.344727	195356.546875
588.122070	195790.171875
586.899414	195941.515625
585.675781	195583.859375
584.452148	195690.218750
583.228516	195992.656250
582.004883	195964.046875
580.781250	194691.640625
579.556641	195404.500000
578.332031	195978.265625
577.107422	195500.578125
575.882812	195755.718750
574.657227	195355.781250
573.431641	194829.484375
572.206055	195665.890625
570.980469	195202.937500
569.753906	195129.578125
568.527344	195459.875000
567.300781	195659.593750
566.074219	195553.562500
564.847656	195188.812500
563.620117	195027.890625
562.392578	194681.687500
561.165039	194977.031250
559.936523	195170.453125
558.708008	194392.859375
557.480469	195111.359375
556.250977	194140.765625
555.022461	194236.515625
553.792969	194651.546875
552.563477	194279.421875
551.333984	194450.296875
550.104492	193814.062500
548.874023	194082.500000
547.644531	193682.281250
546.414062	193420.343750
545.182617	193318.984375
543.952148	192799.281250
542.720703	193197.546875
541.489258	192375.562500
540.257812	192412.453125
539.025391	191743.093750
537.793945	192133.125000
536.561523	192514.875000
535.328125	191951.312500
534.095703	191807.734375
532.862305	191151.234375
531.628906	190474.718750
530.395508	192078.484375
529.162109	191489.156250
527.927734	190128.156250
526.693359	190687.875000
525.458984	190888.937500
524.224609	190360.984375
522.989258	189555.875000
521.754883	189445.296875
520.519531	189694.968750
519.283203	189473.109375
518.047852	190159.609375
516.811523	189122.656250
515.575195	188943.468750
514.338867	188689.546875
513.101562	188696.453125
511.865234	189354.109375
510.627930	189813.500000
509.390625	188894.906250
508.152344	189677.359375
506.914062	188692.468750
505.676758	188632.687500
504.437500	188740.468750
503.199219	189358.843750
501.959961	189155.671875
500.721680	189481.171875
499.481445	189677.437500
498.242188	189016.468750
497.002930	188420.281250
495.762695	188745.640625
494.522461	188929.750000
493.281250	187777.671875
492.041016	188610.687500
490.799805	189276.171875
489.558594	189049.140625
488.317383	189216.875000
487.075195	188478.531250
485.833984	188857.656250
484.591797	188896.500000
483.348633	189086.234375
482.106445	188801.093750
480.863281	188978.703125
479.620117	188601.156250
478.376953	189381.921875
477.133789	189090.875000
475.889648	188950.671875
474.645508	188609.562500
473.401367	188521.718750
472.157227	188695.062500
470.912109	188520.859375
469.666992	188161.968750
468.421875	188666.515625
467.176758	188484.375000
465.930664	188810.031250
464.684570	188001.859375
463.438477	188199.078125
462.192383	188089.312500
460.945312	188057.812500
459.699219	187300.484375
458.452148	187692.093750
457.204102	188261.937500
455.957031	187036.046875
454.708984	187325.281250
453.460938	187155.687500
452.212891	187228.468750
450.963867	186159.859375
449.715820	186140.703125
448.466797	185977.421875
447.217773	185491.984375
445.967773	186285.296875
444.717773	185263.843750
443.467773	185382.828125
442.217773	185299.781250
440.967773	185100.812500
439.716797	185123.781250
438.465820	184211.390625
437.214844	185509.375000
435.963867	184481.359375
434.711914	184286.687500
433.459961	184173.937500
432.208008	183773.703125
430.956055	184214.078125
429.703125	184394.796875
428.450195	183865.000000
427.197266	183341.390625
425.944336	182694.296875
424.691406	183860.375000
423.437500	183347.015625
422.183594	184044.000000
420.928711	182863.015625
419.674805	183432.265625
418.419922	184154.718750
417.165039	183583.953125
415.910156	184411.656250
414.654297	183633.937500
413.399414	184142.734375
412.143555	184032.218750
410.886719	183772.468750
409.630859	182764.593750
408.374023	182533.015625
407.117188	183075.312500
405.860352	182426.093750
404.602539	182749.453125
403.345703	181694.968750
402.087891	181871.250000
400.830078	182550.234375
399.571289	181850.031250
398.313477	182270.484375
397.054688	181298.484375
395.794922	181166.812500
394.536133	181247.640625
393.276367	181074.328125
392.016602	180972.531250
390.756836	181446.203125
389.497070	181352.296875
388.236328	181010.468750
386.975586	181186.359375
385.714844	180959.671875
384.454102	181052.234375
383.192383	180427.265625
381.930664	181623.640625
380.668945	180618.375000
379.407227	180249.343750
378.144531	180848.921875
376.882812	180640.359375
375.620117	179705.296875
374.356445	179685.062500
373.093750	180337.687500
371.830078	179049.015625
370.566406	179252.437500
369.301758	179430.046875
368.038086	178695.953125
366.773438	178080.765625
365.508789	178386.968750
364.244141	178185.109375
362.978516	177975.421875
361.712891	177771.734375
360.447266	177254.031250
359.181641	177696.328125
357.916016	177388.125000
356.649414	177054.375000
355.382812	176347.703125
354.116211	176858.859375
352.848633	176610.218750
351.581055	176698.968750
350.313477	175817.328125
349.045898	176174.359375
347.778320	176231.578125
346.509766	176152.765625
345.241211	175920.250000
343.972656	175514.406250
342.703125	175561.828125
341.433594	175347.265625
340.164062	175629.015625
338.894531	174416.265625
337.625000	175095.718750
336.354492	174381.453125
335.083984	174688.718750
333.813477	174096.765625
332.541992	174461.000000
331.271484	173983.375000
330.000000	173700.562500
328.727539	173010.921875
327.456055	174017.781250
326.183594	173401.031250
324.911133	173527.203125
323.638672	173623.843750
322.366211	172962.312500
321.092773	173879.828125
319.819336	173332.359375
318.545898	173161.968750
317.271484	173005.375000
315.998047	172615.343750
314.723633	172839.484375
313.449219	172463.343750
312.173828	172154.015625
310.899414	172803.546875
309.624023	172329.593750
308.347656	172908.281250
307.072266	172483.453125
305.795898	172693.546875
304.519531	173320.781250
303.243164	172588.609375
301.966797	172818.125000
300.689453	174073.359375
299.412109	173272.937500
298.134766	173320.171875
296.857422	174253.703125
295.579102	174103.125000
294.300781	174511.968750
293.022461	174009.421875
291.744141	172785.609375
290.464844	171464.546875
289.185547	170480.109375
287.906250	170891.171875
286.625977	169610.250000
285.346680	168402.093750
284.066406	168239.140625
282.786133	168021.593750
281.504883	168524.437500
280.224609	166981.671875
278.943359	167841.593750
277.662109	166629.250000
276.379883	166341.937500
275.097656	166573.500000
273.816406	166011.359375
272.533203	165240.843750
271.250977	166020.156250
269.967773	166002.125000
268.684570	165454.140625
267.401367	164672.593750
266.118164	164837.875000
264.833984	164812.265625
263.549805	164784.703125
262.265625	164560.562500
260.981445	164560.281250
259.696289	164873.281250
258.411133	165800.890625
257.125977	165380.234375
255.839844	164846.937500
254.554688	164663.812500
253.268555	164303.843750
251.982422	164307.453125
250.695312	163669.812500
249.409180	164007.687500
248.122070	162719.609375
246.833984	163605.187500
245.546875	162843.859375
244.258789	163076.765625
242.970703	162179.953125
241.682617	161960.734375
240.394531	162366.343750
239.105469	162030.750000
237.816406	161452.859375
236.527344	161932.000000
235.237305	160989.843750
233.948242	161218.812500
232.658203	161065.906250
231.368164	161184.312500
230.077148	162711.046875
228.786133	162708.984375
227.495117	162625.593750
226.204102	162371.843750
224.913086	161516.156250
223.621094	160761.437500
222.329102	159381.984375
221.037109	158788.515625
219.744141	158288.109375
218.451172	157697.000000
217.158203	157819.578125
215.865234	157671.468750
214.572266	157390.031250
213.278320	156888.406250
211.984375	156833.281250
210.690430	156507.718750
209.395508	155707.156250
208.100586	155576.953125
206.805664	154960.281250
205.510742	154930.609375
204.215820	154460.953125
202.919922	154442.953125
201.624023	154052.640625
200.327148	154376.109375
199.031250	153206.890625
197.734375	152753.390625
196.437500	153412.296875
195.140625	152889.531250
193.842773	152158.859375
192.544922	151908.171875
191.247070	151320.484375
189.949219	151740.203125
188.650391	151574.437500
187.352539	150860.078125
186.052734	150865.812500
184.753906	150821.515625
183.455078	151056.187500
182.155273	150952.218750
180.855469	150086.687500
179.554688	150082.921875
178.254883	150452.093750
176.954102	149785.125000
175.653320	149814.062500
174.351562	149777.656250
173.049805	149698.984375
171.749023	149042.234375
170.446289	149706.859375
169.144531	149067.625000
167.841797	148996.812500
166.539062	148346.421875
165.236328	148208.609375
163.933594	148673.203125
162.629883	147610.859375
161.326172	147036.000000
160.022461	147354.812500
158.718750	146446.671875
157.414062	146303.562500
156.109375	146363.640625
154.804688	145619.015625
153.499023	145393.781250
152.193359	145293.093750
150.887695	145337.968750
149.582031	144942.500000
148.276367	144133.765625
146.969727	143817.125000
145.663086	144019.109375
144.356445	144316.640625
143.048828	142705.359375
141.741211	143370.140625
140.433594	143900.859375
139.125977	142399.500000
137.817383	143136.578125
136.508789	141723.828125
135.200195	141003.140625
133.891602	140710.562500
132.582031	139400.281250
131.273438	137676.187500
129.962891	135626.343750
128.653320	133888.359375
127.342773	131464.109375
126.033203	129317.414062
124.721680	127444.296875
123.411133	125402.164062
122.099609	122464.679688
120.788086	119463.507812
119.476562	115542.914062
