#Wave		#Intensity
1999.066406	65921.328125
1998.098633	66011.742188
1997.129883	66377.335938
1996.162109	66006.812500
1995.194336	65853.296875
1994.225586	66239.375000
1993.256836	66189.117188
1992.288086	66252.414062
1991.319336	66202.164062
1990.350586	66373.781250
1989.380859	66266.773438
1988.411133	65930.289062
1987.442383	66039.976562
1986.472656	66391.945312
1985.501953	66604.609375
1984.532227	66327.562500
1983.561523	67052.898438
1982.591797	67043.781250
1981.621094	66305.742188
1980.650391	66628.960938
1979.678711	66375.304688
1978.708008	66549.078125
1977.736328	66431.937500
1976.765625	66672.546875
1975.793945	66226.078125
1974.821289	66847.367188
1973.849609	66627.367188
1972.877930	66628.601562
1971.905273	66735.250000
1970.932617	66890.703125
1969.959961	66732.515625
1968.987305	67288.804688
1968.014648	67210.257812
1967.041016	67054.664062
1966.067383	67114.882812
1965.094727	67020.984375
1964.121094	66416.171875
1963.146484	67059.203125
1962.172852	67396.562500
1961.198242	67002.421875
1960.224609	67306.320312
1959.250000	67430.531250
1958.275391	67641.906250
1957.299805	67209.523438
1956.325195	67213.164062
1955.349609	67324.476562
1954.375000	67438.312500
1953.399414	67365.031250
1952.423828	67035.546875
1951.447266	67336.375000
1950.471680	67439.875000
1949.495117	67189.929688
1948.518555	67628.828125
1947.541992	67627.250000
1946.565430	67369.718750
1945.588867	67342.593750
1944.611328	67699.265625
1943.633789	67736.046875
1942.657227	67327.750000
1941.679688	67643.320312
1940.701172	67449.960938
1939.723633	67302.679688
1938.745117	67722.875000
1937.767578	67133.492188
1936.789062	67870.390625
1935.810547	67528.976562
1934.831055	67473.750000
1933.852539	67112.093750
1932.873047	68211.039062
1931.893555	68007.648438
1930.914062	67755.828125
1929.934570	67810.335938
1928.955078	67875.015625
1927.974609	68105.500000
1926.995117	67784.960938
1926.014648	67449.234375
1925.034180	68036.625000
1924.053711	67716.257812
1923.072266	67283.859375
1922.091797	68044.242188
1921.110352	68014.500000
1920.128906	68135.070312
1919.147461	68418.609375
1918.166016	67767.437500
1917.183594	68114.585938
1916.202148	68023.750000
1915.219727	68579.437500
1914.237305	67859.976562
1913.254883	67558.046875
1912.271484	68227.992188
1911.289062	67915.921875
1910.305664	67654.812500
1909.322266	67828.578125
1908.338867	68098.882812
1907.355469	68081.875000
1906.372070	68029.296875
1905.387695	68025.007812
1904.403320	67939.421875
1903.419922	67853.867188
1902.434570	67730.250000
1901.450195	67906.273438
1900.465820	67912.156250
1899.480469	68171.835938
1898.495117	68172.585938
1897.509766	68325.570312
1896.524414	68273.007812
1895.539062	67829.867188
1894.552734	68462.109375
1893.567383	68054.578125
1892.581055	68156.734375
1891.594727	68015.523438
1890.608398	68006.140625
1889.621094	67639.507812
1888.634766	68301.500000
1887.647461	68231.273438
1886.660156	68459.890625
1885.672852	68718.804688
1884.685547	68068.828125
1883.697266	67899.976562
1882.709961	68472.632812
1881.721680	68432.804688
1880.733398	68233.609375
1879.745117	68244.406250
1878.755859	68336.125000
1877.767578	68258.406250
1876.778320	68711.570312
1875.789062	68381.062500
1874.799805	68080.984375
1873.810547	68430.351562
1872.821289	68822.531250
1871.831055	68628.609375
1870.840820	68485.257812
1869.850586	67887.484375
1868.860352	68547.062500
1867.870117	68731.906250
1866.879883	68742.554688
1865.888672	68944.953125
1864.897461	68493.921875
1863.906250	68378.500000
1862.915039	68590.929688
1861.923828	68316.679688
1860.931641	68597.109375
1859.939453	68837.109375
1858.947266	68925.828125
1857.955078	68150.320312
1856.962891	69397.890625
1855.970703	69206.882812
1854.977539	70479.015625
1853.984375	68613.578125
1852.991211	68964.023438
1851.998047	68375.554688
1851.004883	68886.960938
1850.010742	68598.109375
1849.017578	68807.429688
1848.023438	69539.820312
1847.029297	69082.507812
1846.035156	68964.781250
1845.040039	68977.804688
1844.045898	69129.054688
1843.050781	68792.750000
1842.055664	69401.242188
1841.060547	68655.546875
1840.065430	69198.539062
1839.069336	69314.445312
1838.073242	69231.968750
1837.078125	69011.453125
1836.082031	69287.953125
1835.084961	69213.046875
1834.088867	68832.070312
1833.092773	69346.757812
1832.095703	69567.812500
1831.098633	69490.390625
1830.101562	69260.054688
1829.104492	69709.117188
1828.106445	69386.078125
1827.109375	69546.789062
1826.111328	69672.359375
1825.113281	69812.906250
1824.115234	69470.039062
1823.116211	69272.523438
1822.118164	70136.609375
1821.119141	70126.781250
1820.120117	69316.070312
1819.121094	69806.843750
1818.122070	69096.546875
1817.122070	69842.328125
1816.123047	69114.757812
1815.123047	69477.679688
1814.123047	69515.460938
1813.123047	69913.179688
1812.123047	69501.000000
1811.122070	69808.617188
1810.122070	69519.015625
1809.121094	69384.390625
1808.120117	69414.632812
1807.118164	69332.500000
1806.117188	69764.695312
1805.115234	70012.015625
1804.114258	69665.265625
1803.112305	69967.406250
1802.110352	69391.265625
1801.107422	69810.578125
1800.105469	69868.117188
1799.102539	69651.351562
1798.099609	69290.054688
1797.096680	69868.609375
1796.093750	69519.859375
1795.090820	70025.906250
1794.086914	69911.429688
1793.083008	69831.867188
1792.079102	69956.539062
1791.075195	69570.718750
1790.071289	69862.195312
1789.067383	69852.375000
1788.062500	69382.156250
1787.057617	69984.531250
1786.052734	69596.539062
1785.047852	69882.765625
1784.041992	69659.062500
1783.037109	69529.921875
1782.031250	69239.234375
1781.025391	69662.015625
1780.019531	69885.828125
1779.013672	69841.210938
1778.006836	69774.250000
1777.000977	69386.890625
1775.994141	70087.398438
1774.987305	70052.703125
1773.980469	70057.726562
1772.972656	69355.351562
1771.965820	69755.078125
1770.958008	69695.640625
1769.950195	69656.062500
1768.942383	69867.015625
1767.934570	69931.570312
1766.925781	69889.484375
1765.917969	69349.125000
1764.909180	69579.796875
1763.900391	69892.164062
1762.891602	69803.031250
1761.881836	69473.617188
1760.873047	70043.429688
1759.863281	69875.054688
1758.853516	69392.289062
1757.843750	69951.906250
1756.833984	69838.078125
1755.823242	69981.664062
1754.812500	69281.476562
1753.802734	69858.015625
1752.791992	69969.359375
1751.780273	69576.179688
1750.769531	69657.851562
1749.757812	69507.125000
1748.747070	69591.250000
1747.735352	70134.984375
1746.723633	69477.734375
1745.710938	69072.687500
1744.699219	68988.867188
1743.686523	69836.054688
1742.673828	69887.914062
1741.661133	69813.859375
1740.648438	69567.062500
1739.635742	69695.437500
1738.622070	69621.445312
1737.608398	69697.953125
1736.594727	69540.125000
1735.581055	69890.343750
1734.567383	69626.515625
1733.552734	70060.398438
1732.539062	69843.453125
1731.524414	69525.546875
1730.509766	69643.843750
1729.495117	69688.195312
1728.479492	69577.367188
1727.464844	69705.437500
1726.449219	69542.929688
1725.433594	69471.562500
1724.417969	69683.257812
1723.401367	70458.375000
1722.385742	69848.070312
1721.369141	69643.851562
1720.352539	69865.187500
1719.335938	69663.492188
1718.319336	69491.367188
1717.301758	69506.125000
1716.285156	69665.875000
1715.267578	69847.679688
1714.250000	69800.937500
1713.232422	69729.640625
1712.213867	69525.742188
1711.196289	69859.671875
1710.177734	69881.687500
1709.159180	69788.328125
1708.140625	69491.296875
1707.122070	69255.703125
1706.102539	69770.929688
1705.083984	69949.914062
1704.064453	69962.062500
1703.044922	69787.843750
1702.025391	70035.367188
1701.004883	69731.289062
1699.985352	70164.984375
1698.964844	70003.101562
1697.944336	69902.515625
1696.923828	70032.210938
1695.903320	69916.960938
1694.881836	69826.226562
1693.860352	69848.140625
1692.838867	70325.320312
1691.817383	69950.671875
1690.795898	69982.335938
1689.774414	70018.867188
1688.751953	69793.671875
1687.729492	70223.960938
1686.707031	70128.390625
1685.684570	70318.882812
1684.662109	70008.226562
1683.638672	70240.210938
1682.616211	70489.210938
1681.592773	70273.960938
1680.569336	70119.851562
1679.544922	70139.171875
1678.521484	70151.164062
1677.497070	69560.171875
1676.472656	70197.093750
1675.448242	70274.953125
1674.423828	70130.742188
1673.399414	69979.265625
1672.374023	70042.476562
1671.348633	69891.062500
1670.323242	70156.632812
1669.297852	69819.968750
1668.272461	69858.781250
1667.246094	69729.429688
1666.220703	70070.351562
1665.194336	69770.484375
1664.167969	69877.453125
1663.140625	69972.218750
1662.114258	70023.109375
1661.086914	69630.945312
1660.059570	70083.468750
1659.032227	69864.195312
1658.004883	69494.156250
1656.977539	70104.570312
1655.949219	69795.414062
1654.921875	69530.140625
1653.893555	69811.992188
1652.865234	69680.492188
1651.835938	69551.476562
1650.807617	69441.937500
1649.778320	69985.984375
1648.749023	69305.554688
1647.719727	69813.000000
1646.690430	69926.882812
1645.660156	69594.000000
1644.630859	69707.875000
1643.600586	69494.062500
1642.570312	69782.625000
1641.540039	69714.437500
1640.508789	69296.968750
1639.478516	69243.445312
1638.447266	69716.117188
1637.416016	69000.664062
1636.384766	69461.085938
1635.353516	69179.742188
1634.321289	69458.234375
1633.290039	69382.906250
1632.257812	69191.343750
1631.225586	69266.242188
1630.192383	69309.632812
1629.160156	68648.507812
1628.126953	69103.476562
1627.094727	69033.117188
1626.061523	68909.546875
1625.027344	68756.992188
1623.994141	69291.429688
1622.959961	69179.960938
1621.926758	68896.859375
1620.892578	68867.695312
1619.858398	68712.851562
1618.823242	68773.140625
1617.789062	68864.820312
1616.753906	68898.484375
1615.718750	68854.835938
1614.683594	69185.515625
1613.648438	68538.203125
1612.612305	68513.953125
1611.577148	68873.476562
1610.541016	69034.984375
1609.504883	68573.929688
1608.468750	68733.015625
1607.431641	68556.781250
1606.395508	69183.640625
1605.358398	68927.820312
1604.321289	68725.125000
1603.284180	68857.515625
1602.247070	68727.187500
1601.208984	68558.351562
1600.170898	68611.203125
1599.132812	68447.257812
1598.094727	68572.343750
1597.056641	68341.046875
1596.018555	68610.539062
1594.979492	68740.328125
1593.940430	68612.593750
1592.901367	68862.632812
1591.862305	68544.875000
1590.822266	69097.875000
1589.783203	68717.664062
1588.743164	69123.765625
1587.703125	68325.421875
1586.663086	68488.710938
1585.622070	68728.828125
1584.582031	68610.882812
1583.541016	68605.875000
1582.500000	68605.664062
1581.458984	68699.101562
1580.417969	68862.132812
1579.375977	68569.023438
1578.334961	68506.414062
1577.292969	69139.687500
1576.250977	69180.156250
1575.208008	68680.906250
1574.166016	68807.765625
1573.123047	68757.148438
1572.081055	68840.796875
1571.037109	69324.703125
1569.994141	68729.992188
1568.951172	68629.093750
1567.907227	68830.085938
1566.863281	68472.906250
1565.820312	68927.687500
1564.775391	68862.734375
1563.731445	68836.093750
1562.686523	68615.593750
1561.642578	68763.703125
1560.597656	68562.421875
1559.552734	68705.695312
1558.506836	68614.515625
1557.461914	69056.656250
1556.416016	68845.890625
1555.370117	69096.578125
1554.324219	68438.921875
1553.278320	68837.750000
1552.231445	69014.226562
1551.185547	68932.648438
1550.138672	68944.234375
1549.091797	69170.742188
1548.044922	68879.054688
1546.997070	69031.484375
1545.950195	68861.648438
1544.902344	68651.304688
1543.854492	69237.906250
1542.806641	68767.546875
1541.757812	68483.390625
1540.709961	69126.929688
1539.661133	68907.179688
1538.612305	68811.445312
1537.563477	69092.320312
1536.514648	69211.046875
1535.464844	68179.000000
1534.415039	68552.718750
1533.366211	69321.656250
1532.316406	68566.351562
1531.265625	68763.617188
1530.215820	68527.585938
1529.165039	68822.367188
1528.114258	68308.007812
1527.063477	68640.773438
1526.012695	69025.750000
1524.960938	69410.585938
1523.910156	68979.695312
1522.858398	68499.039062
1521.806641	68764.906250
1520.754883	68726.484375
1519.702148	69077.750000
1518.650391	68533.257812
1517.597656	68986.562500
1516.544922	68774.757812
1515.492188	68762.468750
1514.439453	68474.804688
1513.385742	68875.562500
1512.332031	68350.664062
1511.278320	68597.070312
1510.224609	68295.398438
1509.170898	68207.296875
1508.116211	68833.015625
1507.062500	68524.335938
1506.007812	67883.890625
1504.953125	68336.304688
1503.897461	68366.742188
1502.842773	67901.984375
1501.787109	68273.601562
1500.731445	68600.085938
1499.675781	68301.289062
1498.620117	68315.117188
1497.563477	68108.789062
1496.507812	68046.906250
1495.451172	68065.500000
1494.394531	67897.179688
1493.337891	68029.328125
1492.280273	68258.398438
1491.223633	67707.046875
1490.166016	67605.093750
1489.108398	67975.937500
1488.050781	68122.117188
1486.992188	68072.125000
1485.934570	67849.679688
1484.875977	68035.953125
1483.817383	67858.460938
1482.758789	67740.054688
1481.699219	67935.687500
1480.640625	67949.492188
1479.581055	67746.171875
1478.521484	67705.734375
1477.461914	67191.109375
1476.402344	67596.578125
1475.341797	67610.414062
1474.282227	67621.890625
1473.221680	67706.437500
1472.161133	67555.250000
1471.099609	67592.640625
1470.039062	67670.070312
1468.977539	67106.703125
1467.916016	67097.039062
1466.854492	67066.179688
1465.792969	67218.984375
1464.730469	67232.835938
1463.668945	67540.890625
1462.606445	67161.687500
1461.543945	66841.429688
1460.481445	67311.703125
1459.417969	67104.421875
1458.354492	67261.710938
1457.291992	67110.945312
1456.228516	67383.351562
1455.164062	67091.593750
1454.100586	67044.320312
1453.036133	67091.039062
1451.971680	67100.148438
1450.907227	66900.234375
1449.842773	66435.039062
1448.778320	67139.203125
1447.712891	66854.867188
1446.648438	66819.414062
1445.583008	66678.375000
1444.516602	66140.890625
1443.451172	66863.226562
1442.384766	66731.625000
1441.319336	66736.070312
1440.252930	67195.328125
1439.186523	66705.101562
1438.119141	66751.726562
1437.052734	66756.156250
1435.985352	66861.312500
1434.917969	66727.515625
1433.850586	66987.203125
1432.782227	66673.140625
1431.714844	66768.859375
1430.646484	66094.484375
1429.578125	66737.875000
1428.509766	66697.820312
1427.441406	66858.968750
1426.372070	66753.406250
1425.303711	66603.453125
1424.234375	66682.679688
1423.165039	66371.484375
1422.094727	66221.671875
1421.025391	66373.367188
1419.955078	66158.179688
1418.884766	65959.414062
1417.814453	65821.453125
1416.744141	66732.023438
1415.672852	66199.390625
1414.602539	66864.453125
1413.531250	66735.750000
1412.459961	66499.750000
1411.388672	66548.460938
1410.316406	65743.406250
1409.244141	65598.656250
1408.172852	66521.929688
1407.099609	66216.218750
1406.027344	66015.515625
1404.955078	66208.742188
1403.881836	66490.437500
1402.808594	66182.617188
1401.735352	65963.414062
1400.662109	66161.156250
1399.588867	66223.781250
1398.514648	66400.445312
1397.440430	66188.335938
1396.366211	66295.125000
1395.291992	65978.390625
1394.216797	65906.046875
1393.142578	65729.054688
1392.067383	65924.210938
1390.992188	65996.054688
1389.916992	66093.453125
1388.840820	66439.500000
1387.765625	65890.742188
1386.689453	65823.125000
1385.613281	65774.117188
1384.537109	65827.320312
1383.459961	65550.750000
1382.383789	65627.179688
1381.306641	66135.359375
1380.229492	65775.320312
1379.152344	65765.804688
1378.074219	65733.085938
1376.997070	65776.929688
1375.918945	65447.355469
1374.840820	65219.925781
1373.762695	65187.320312
1372.683594	65574.281250
1371.605469	65481.363281
1370.526367	65365.304688
1369.447266	65297.933594
1368.368164	65443.691406
1367.288086	65705.187500
1366.208984	65211.730469
1365.128906	65681.523438
1364.048828	65273.890625
1362.968750	65222.792969
1361.887695	65315.167969
1360.807617	65155.347656
1359.726562	65351.781250
1358.645508	65659.148438
1357.564453	65318.992188
1356.482422	65260.988281
1355.401367	64872.480469
1354.319336	65006.382812
1353.237305	65087.089844
1352.155273	64985.269531
1351.073242	65204.527344
1349.990234	65058.839844
1348.907227	64913.199219
1347.824219	65111.570312
1346.741211	64869.031250
1345.658203	65212.707031
1344.574219	65597.789062
1343.490234	64930.843750
1342.406250	64831.496094
1341.322266	65050.398438
1340.238281	65326.859375
1339.153320	64618.941406
1338.068359	64936.859375
1336.983398	64987.363281
1335.898438	64830.500000
1334.813477	64802.683594
1333.727539	65115.722656
1332.641602	65288.187500
1331.556641	64613.378906
1330.469727	64613.230469
1329.383789	65211.437500
1328.296875	64831.519531
1327.210938	64990.062500
1326.124023	64930.031250
1325.036133	64467.574219
1323.949219	65141.128906
1322.861328	64842.015625
1321.774414	64405.097656
1320.686523	64614.085938
1319.597656	65110.199219
1318.509766	64956.019531
1317.420898	64381.578125
1316.333008	64466.402344
1315.244141	64670.585938
1314.154297	64466.082031
1313.065430	64862.976562
1311.975586	64614.906250
1310.886719	64566.531250
1309.796875	64277.308594
1308.706055	64458.355469
1307.616211	64375.625000
1306.525391	64581.800781
1305.435547	64673.285156
1304.344727	64686.812500
1303.252930	64251.218750
1302.162109	64138.804688
1301.070312	63859.218750
1299.979492	64115.628906
1298.887695	64108.625000
1297.794922	63824.609375
1296.703125	63790.183594
1295.610352	64096.761719
1294.517578	64016.535156
1293.424805	63892.867188
1292.332031	63529.078125
1291.239258	63958.957031
1290.145508	63844.503906
1289.051758	63716.375000
1287.958008	63704.855469
1286.864258	64024.691406
1285.769531	63686.390625
1284.675781	63521.820312
1283.581055	63745.582031
1282.486328	63384.667969
1281.391602	64530.757812
1280.295898	63845.683594
1279.201172	63822.722656
1278.105469	63286.339844
1277.009766	63550.949219
1275.913086	63290.816406
1274.817383	63751.464844
1273.720703	63117.421875
1272.624023	62994.289062
1271.527344	63238.183594
1270.430664	63429.574219
1269.333008	63338.343750
1268.236328	63151.457031
1267.138672	63142.304688
1266.041016	62925.914062
1264.942383	62812.062500
1263.844727	63094.363281
1262.746094	63458.503906
1261.647461	62784.781250
1260.548828	63094.230469
1259.450195	62768.871094
1258.350586	63212.402344
1257.250977	63021.304688
1256.152344	62750.695312
1255.051758	62746.148438
1253.952148	62852.972656
1252.852539	62721.148438
1251.751953	62614.363281
1250.651367	62387.218750
1249.550781	62607.578125
1248.449219	62160.246094
1247.348633	62378.289062
1246.247070	62659.812500
1245.145508	62308.027344
1244.043945	62746.023438
1242.941406	62389.804688
1241.839844	62221.984375
1240.737305	62535.019531
1239.634766	62138.210938
1238.532227	62491.945312
1237.428711	62362.750000
1236.326172	62129.351562
1235.222656	62328.812500
1234.119141	62247.281250
1233.015625	61991.375000
1231.911133	62367.382812
1230.807617	62571.171875
1229.703125	62030.097656
1228.598633	62159.175781
1227.493164	62371.937500
1226.388672	62030.289062
1225.283203	62105.000000
1224.177734	62007.789062
1223.072266	62518.906250
1221.966797	62055.378906
1220.861328	61935.617188
1219.754883	62523.304688
1218.648438	61874.726562
1217.541992	62073.613281
1216.435547	62017.167969
1215.328125	61935.902344
1214.220703	62364.980469
1213.113281	62220.460938
1212.005859	62545.492188
1210.898438	61811.957031
1209.790039	62283.605469
1208.682617	62114.378906
1207.574219	62078.289062
1206.464844	62335.386719
1205.356445	62362.398438
1204.248047	62044.480469
1203.138672	62112.101562
1202.029297	62058.003906
1200.919922	62368.929688
1199.809570	62276.503906
1198.700195	61862.027344
1197.589844	62325.941406
1196.479492	62019.671875
1195.368164	61997.148438
1194.257812	62314.484375
1193.146484	62294.160156
1192.036133	62458.332031
1190.923828	61886.867188
1189.812500	62141.007812
1188.701172	62507.484375
1187.588867	62280.292969
1186.476562	61859.871094
1185.364258	62248.664062
1184.251953	61841.878906
1183.138672	61891.292969
1182.026367	61947.425781
1180.913086	61664.425781
1179.799805	62223.535156
1178.685547	62007.929688
1177.572266	62079.703125
1176.458008	62169.398438
1175.343750	62108.730469
1174.229492	62099.675781
1173.114258	61621.855469
1172.000000	61969.445312
1170.884766	61731.722656
1169.769531	61928.968750
1168.654297	61742.882812
1167.538086	61830.246094
1166.422852	61877.250000
1165.306641	61865.988281
1164.190430	61823.375000
1163.074219	61615.070312
1161.957031	61738.187500
1160.840820	61453.863281
1159.723633	61413.582031
1158.606445	61899.152344
1157.488281	61145.132812
1156.371094	61507.546875
1155.252930	61397.949219
1154.134766	61315.218750
1153.016602	61096.144531
1151.898438	61514.171875
1150.779297	61605.769531
1149.661133	61371.113281
1148.541992	61516.312500
1147.421875	61174.542969
1146.302734	61011.546875
1145.183594	60926.753906
1144.063477	61493.828125
1142.943359	61141.140625
1141.823242	61022.890625
1140.702148	61328.585938
1139.581055	60931.503906
1138.460938	60476.570312
1137.339844	60822.332031
1136.217773	60780.035156
1135.096680	61056.507812
1133.974609	60884.914062
1132.852539	60717.839844
1131.730469	60706.769531
1130.608398	60775.890625
1129.485352	60314.949219
1128.363281	60809.398438
1127.240234	60261.792969
1126.117188	61005.355469
1124.993164	60424.527344
1123.870117	60498.058594
1122.746094	60762.875000
1121.622070	60569.410156
1120.498047	60573.925781
1119.373047	60787.441406
1118.249023	60125.019531
1117.124023	60340.753906
1115.999023	60678.625000
1114.874023	60225.421875
1113.748047	60463.226562
1112.623047	59925.828125
1111.497070	60418.957031
1110.371094	59724.125000
1109.244141	60110.558594
1108.118164	59999.718750
1106.991211	60323.824219
1105.864258	60494.734375
1104.737305	60330.640625
1103.610352	59827.292969
1102.482422	60328.570312
1101.355469	60193.410156
1100.227539	59920.871094
1099.098633	59730.425781
1097.970703	59914.500000
1096.841797	60098.503906
1095.713867	59804.023438
1094.584961	60459.656250
1093.455078	60160.785156
1092.326172	60059.035156
1091.196289	60233.976562
1090.066406	60433.195312
1088.936523	59950.902344
1087.806641	60006.308594
1086.675781	60189.968750
1085.545898	60307.222656
1084.415039	60305.046875
1083.284180	60002.246094
1082.152344	60199.023438
1081.021484	60084.167969
1079.889648	59609.250000
1078.757812	59947.347656
1077.625977	59863.507812
1076.493164	59653.843750
1075.361328	60453.128906
1074.228516	60055.816406
1073.095703	60155.175781
1071.962891	59980.902344
1070.829102	60064.789062
1069.695312	60089.093750
1068.561523	59875.226562
1067.427734	60062.707031
1066.293945	60386.785156
1065.159180	60265.542969
1064.025391	60062.804688
1062.890625	60349.246094
1061.755859	59915.273438
1060.620117	59919.726562
1059.485352	60089.324219
1058.349609	60040.898438
1057.213867	59845.015625
1056.078125	60410.660156
1054.941406	59631.679688
1053.804688	59979.359375
1052.668945	59574.660156
1051.531250	59902.421875
1050.394531	59847.480469
1049.257812	59794.757812
1048.120117	59794.796875
1046.982422	59471.800781
1045.844727	60416.660156
1044.706055	59671.890625
1043.568359	59472.078125
1042.429688	59909.156250
1041.291016	59849.878906
1040.152344	59841.113281
1039.012695	59751.140625
1037.874023	59731.417969
1036.734375	59928.898438
1035.594727	59722.695312
1034.454102	60051.683594
1033.314453	59775.363281
1032.173828	59534.218750
1031.033203	59312.886719
1029.892578	59580.335938
1028.751953	59963.812500
1027.610352	59611.074219
1026.468750	59072.285156
1025.327148	59464.398438
1024.185547	59333.074219
1023.043945	59425.085938
1021.901367	59420.753906
1020.758789	59311.386719
1019.616211	59337.707031
1018.473633	59521.511719
1017.330078	59329.066406
1016.187500	59696.480469
1015.043945	59228.601562
1013.900391	59399.164062
1012.755859	59001.437500
1011.612305	59189.457031
1010.467773	59303.125000
1009.323242	59139.347656
1008.178711	59014.933594
1007.033203	59477.917969
1005.887695	59589.257812
1004.743164	59170.160156
1003.597656	58999.996094
1002.451172	59414.632812
1001.305664	59508.441406
1000.159180	59261.960938
999.012695	59080.988281
997.866211	59028.718750
996.718750	59748.140625
995.572266	58721.535156
994.424805	59235.910156
993.277344	59312.179688
992.129883	59211.980469
990.981445	59227.238281
989.833984	59192.410156
988.685547	59155.414062
987.537109	59138.019531
986.387695	59094.511719
985.239258	59331.703125
984.089844	59540.527344
982.940430	59281.628906
981.791016	59003.253906
980.640625	59364.210938
979.491211	59592.429688
978.340820	59175.039062
977.190430	58979.453125
976.040039	59009.894531
974.888672	59148.933594
973.738281	59211.906250
972.586914	59062.046875
971.434570	58842.765625
970.283203	59020.796875
969.131836	59183.570312
967.979492	59452.601562
966.827148	59389.601562
965.674805	59075.007812
964.521484	58951.375000
963.368164	59055.453125
962.215820	59116.128906
961.061523	59276.488281
959.908203	58897.179688
958.754883	59181.015625
957.600586	58927.503906
956.446289	59345.507812
955.291992	59079.062500
954.136719	59169.949219
952.982422	59345.226562
951.827148	58899.281250
950.671875	59193.550781
949.516602	58964.144531
948.360352	59065.773438
947.204102	58663.449219
946.048828	58879.695312
944.891602	59340.152344
943.735352	58946.636719
942.578125	59177.832031
941.421875	58747.753906
940.264648	58916.246094
939.106445	58840.597656
937.949219	58911.824219
936.791016	58989.496094
935.632812	59265.742188
934.474609	59289.359375
933.316406	58823.117188
932.157227	58665.566406
930.999023	58933.031250
929.839844	59515.277344
928.680664	58758.214844
927.520508	58546.886719
926.360352	58965.050781
925.201172	58445.570312
924.041016	58867.906250
922.879883	58374.480469
921.719727	58949.597656
920.558594	58654.460938
919.397461	58886.957031
918.236328	58533.808594
917.075195	58170.027344
915.913086	58785.531250
914.750977	58695.082031
913.588867	58492.804688
912.426758	58389.535156
911.263672	58187.378906
910.101562	58731.347656
908.938477	58428.167969
907.775391	58245.457031
906.611328	57903.796875
905.448242	58221.820312
904.284180	58440.917969
903.120117	58419.398438
901.956055	58241.136719
900.791016	58507.328125
899.625977	58666.101562
898.461914	57972.835938
897.295898	57983.593750
896.130859	58099.460938
894.964844	58163.804688
893.799805	58251.714844
892.633789	57960.089844
891.466797	58245.214844
890.300781	58418.781250
889.133789	58088.710938
887.966797	58324.367188
886.799805	58232.199219
885.632812	58257.851562
884.465820	58285.636719
883.297852	58133.574219
882.129883	57684.035156
880.961914	57891.671875
879.792969	58028.617188
878.624023	58475.707031
877.456055	57983.648438
876.287109	58229.558594
875.117188	57917.324219
873.948242	58227.281250
872.778320	58000.652344
871.608398	58265.597656
870.438477	57650.187500
869.267578	58504.671875
868.097656	57996.226562
866.926758	58004.726562
865.755859	58162.664062
864.583984	58040.914062
863.413086	57829.570312
862.241211	58057.863281
861.069336	58006.593750
859.897461	57797.496094
858.725586	58373.273438
857.552734	58396.589844
856.379883	58085.207031
855.207031	58330.230469
854.034180	58289.609375
852.860352	57863.355469
851.686523	57922.949219
850.512695	58112.433594
849.338867	58340.179688
848.165039	58105.835938
846.990234	58205.773438
845.815430	58254.593750
844.640625	58286.371094
843.465820	58362.808594
842.290039	58279.683594
841.115234	58379.484375
839.939453	58492.003906
838.762695	58642.742188
837.586914	58357.695312
836.410156	58797.414062
835.233398	58444.449219
834.056641	58223.316406
832.879883	58295.371094
831.703125	58303.683594
830.525391	58439.382812
829.347656	58296.949219
828.169922	58511.121094
826.991211	58279.597656
825.812500	58510.660156
824.634766	58663.152344
823.455078	58204.796875
822.276367	58077.390625
821.097656	58331.628906
819.917969	58704.468750
818.738281	58782.593750
817.558594	58680.593750
816.377930	58536.253906
815.197266	58555.058594
814.017578	58599.261719
812.835938	58596.867188
811.655273	58503.449219
810.474609	58615.355469
809.292969	58744.148438
808.111328	58788.261719
806.929688	58430.453125
805.747070	58931.421875
804.564453	58478.562500
803.381836	58507.886719
802.199219	58215.910156
801.016602	58623.546875
799.833008	58029.503906
798.650391	58690.527344
797.466797	58354.367188
796.282227	58286.523438
795.098633	58575.519531
793.914062	58256.449219
792.729492	58735.292969
791.544922	58342.449219
790.360352	58612.222656
789.174805	58246.964844
787.989258	58645.300781
786.803711	58897.992188
785.618164	58503.359375
784.431641	58559.949219
783.246094	58500.605469
782.059570	58765.765625
780.872070	58558.933594
779.685547	58545.953125
778.498047	58419.257812
777.310547	58418.933594
776.123047	58603.859375
774.935547	58580.343750
773.747070	58211.730469
772.559570	58447.074219
771.371094	58143.824219
770.181641	58709.281250
768.993164	58338.804688
767.803711	58132.441406
766.614258	58420.121094
765.424805	58346.214844
764.235352	58503.468750
763.044922	58492.593750
761.855469	58233.871094
760.665039	58496.050781
759.473633	58268.914062
758.283203	58125.828125
757.091797	58442.441406
755.900391	58183.957031
754.708984	58288.531250
753.517578	58458.093750
752.325195	58487.070312
751.132812	58075.683594
749.940430	58144.550781
748.748047	58511.035156
747.554688	58581.886719
746.361328	57965.433594
745.167969	58392.496094
743.974609	58144.945312
742.781250	58347.730469
741.586914	58378.750000
740.392578	58099.933594
739.198242	58545.394531
738.003906	58298.035156
736.808594	58230.691406
735.613281	58123.628906
734.417969	58307.316406
733.222656	58219.089844
732.027344	58388.050781
730.831055	58260.125000
729.634766	58408.105469
728.438477	58232.160156
727.241211	58319.503906
726.044922	58294.023438
724.847656	58210.074219
723.650391	58412.203125
722.452148	58476.472656
721.254883	58352.875000
720.056641	58185.496094
718.858398	58733.808594
717.660156	58530.953125
716.460938	58096.667969
715.262695	58173.421875
714.063477	58362.726562
712.864258	57949.550781
711.664062	58374.320312
710.464844	58248.835938
709.264648	58810.882812
708.064453	58477.070312
706.863281	58320.394531
705.663086	58253.304688
704.461914	58454.781250
703.260742	58647.851562
702.059570	58204.078125
700.858398	58530.277344
699.656250	58667.050781
698.454102	58233.914062
697.251953	58368.613281
696.048828	58442.964844
694.846680	58122.347656
693.643555	58321.406250
692.440430	58327.148438
691.237305	58586.335938
690.033203	58332.386719
688.830078	58446.101562
687.625977	58304.390625
686.420898	58914.207031
685.216797	58263.949219
684.011719	58489.640625
682.806641	58596.984375
681.601562	58303.933594
680.396484	58048.320312
679.190430	58518.554688
677.985352	58408.117188
676.778320	58496.703125
675.572266	58856.746094
674.366211	59119.261719
673.159180	58252.632812
671.952148	58361.886719
670.745117	58377.906250
669.537109	58412.554688
668.330078	58741.136719
667.122070	58618.398438
665.914062	58294.980469
664.705078	58319.261719
663.497070	58620.714844
662.288086	58611.832031
661.079102	58377.558594
659.870117	58219.863281
658.660156	58242.054688
657.450195	58338.632812
656.240234	58705.847656
655.030273	58062.726562
653.820312	58223.304688
652.609375	58458.164062
651.398438	58323.351562
650.187500	58095.695312
648.976562	58563.660156
647.764648	58236.988281
646.552734	58273.550781
645.340820	58301.843750
644.128906	58243.503906
642.916992	58160.441406
641.704102	58401.078125
640.491211	58200.519531
639.278320	58490.511719
638.064453	57801.683594
636.850586	58000.992188
635.637695	58018.976562
634.422852	58275.824219
633.208984	57865.492188
631.994141	58128.445312
630.780273	58061.996094
629.564453	57935.894531
628.349609	58104.039062
627.134766	58154.871094
625.918945	57907.476562
624.703125	57888.410156
623.487305	57556.863281
622.270508	58090.773438
621.053711	57761.363281
619.836914	58206.683594
618.620117	58146.476562
617.403320	58310.167969
616.185547	58022.023438
614.967773	57672.386719
613.750000	58033.128906
612.532227	58042.781250
611.313477	58237.101562
610.094727	57840.492188
608.875977	57622.480469
607.657227	58097.726562
606.438477	58156.554688
605.218750	58272.757812
603.999023	58212.644531
602.779297	58070.578125
601.558594	57922.414062
600.338867	57542.824219
599.118164	58066.597656
597.896484	58354.683594
596.675781	57682.441406
595.454102	58367.597656
594.233398	58125.386719
593.011719	57789.136719
591.789062	57547.121094
590.567383	57980.187500
589.344727	57447.824219
588.122070	58142.460938
586.899414	58239.898438
585.675781	58402.707031
584.452148	58559.316406
583.228516	58307.238281
582.004883	58045.035156
580.781250	57940.195312
579.556641	58072.257812
578.332031	58296.144531
577.107422	57811.636719
575.882812	58233.445312
574.657227	58181.703125
573.431641	58319.707031
572.206055	58484.171875
570.980469	57969.480469
569.753906	58290.941406
568.527344	58218.839844
567.300781	58061.156250
566.074219	58027.835938
564.847656	58275.687500
563.620117	58205.667969
562.392578	58125.488281
561.165039	58163.441406
559.936523	57944.855469
558.708008	57783.339844
557.480469	58317.890625
556.250977	58144.156250
555.022461	57834.179688
553.792969	58238.238281
552.563477	58251.695312
551.333984	57612.492188
550.104492	57701.269531
548.874023	57836.757812
547.644531	58417.210938
546.414062	58052.718750
545.182617	57521.796875
543.952148	57443.960938
542.720703	57869.718750
541.489258	57505.593750
540.257812	57671.367188
539.025391	57778.222656
537.793945	57576.632812
536.561523	57604.343750
535.328125	57488.039062
534.095703	57684.066406
532.862305	57255.554688
531.628906	57528.574219
530.395508	57331.292969
529.162109	57140.164062
527.927734	57131.433594
526.693359	56912.050781
525.458984	57555.472656
524.224609	56923.027344
522.989258	57286.828125
521.754883	56972.437500
520.519531	57064.917969
519.283203	56513.960938
518.047852	57104.117188
516.811523	56739.425781
515.575195	56928.933594
514.338867	56655.386719
513.101562	56885.257812
511.865234	57001.867188
510.627930	56906.261719
509.390625	56790.492188
508.152344	56927.242188
506.914062	56706.492188
505.676758	57073.378906
504.437500	56798.171875
503.199219	56848.019531
501.959961	56958.382812
500.721680	56875.019531
499.481445	56973.226562
498.242188	57168.199219
497.002930	57282.441406
495.762695	57178.906250
494.522461	56726.699219
493.281250	57046.507812
492.041016	56779.859375
490.799805	56992.765625
489.558594	57028.343750
488.317383	57021.617188
487.075195	57091.398438
485.833984	57100.761719
484.591797	57053.765625
483.348633	57280.445312
482.106445	57321.949219
480.863281	56939.011719
479.620117	57207.812500
478.376953	57577.042969
477.133789	56778.125000
475.889648	57549.285156
474.645508	56879.281250
473.401367	57218.148438
472.157227	57593.042969
470.912109	57043.910156
469.666992	57308.246094
468.421875	57297.425781
467.176758	57168.179688
465.930664	57235.656250
464.684570	56933.898438
463.438477	57019.445312
462.192383	57155.097656
460.945312	57304.738281
459.699219	57340.031250
458.452148	57012.464844
457.204102	57051.804688
455.957031	57245.421875
454.708984	56673.621094
453.460938	57039.507812
452.212891	56902.554688
450.963867	56665.535156
449.715820	56722.894531
448.466797	56580.066406
447.217773	56735.476562
445.967773	56678.734375
444.717773	56537.988281
443.467773	56545.300781
442.217773	56998.550781
440.967773	56309.992188
439.716797	56057.468750
438.465820	56240.734375
437.214844	56645.730469
435.963867	56457.210938
434.711914	56196.851562
433.459961	56220.171875
432.208008	56229.507812
430.956055	56310.703125
429.703125	56108.437500
428.450195	56047.933594
427.197266	56079.230469
425.944336	56202.273438
424.691406	56113.855469
423.437500	55425.250000
422.183594	55691.886719
420.928711	56430.832031
419.674805	55856.152344
418.419922	56694.410156
417.165039	56092.000000
415.910156	56782.500000
414.654297	56253.976562
413.399414	56269.210938
412.143555	55731.023438
410.886719	56138.437500
409.630859	56129.792969
408.374023	56025.656250
407.117188	55736.562500
405.860352	55720.039062
404.602539	55588.191406
403.345703	55812.250000
402.087891	55656.578125
400.830078	55741.421875
399.571289	55734.835938
398.313477	55781.882812
397.054688	55801.105469
395.794922	55669.398438
394.536133	55412.656250
393.276367	55370.394531
392.016602	55707.214844
390.756836	55734.355469
389.497070	55400.414062
388.236328	55328.421875
386.975586	55718.527344
385.714844	55561.238281
384.454102	55602.246094
383.192383	55512.421875
381.930664	55549.453125
380.668945	55675.625000
379.407227	55239.171875
378.144531	55416.843750
376.882812	55103.371094
375.620117	55720.503906
374.356445	55666.386719
373.093750	55200.652344
371.830078	55433.550781
370.566406	55237.074219
369.301758	54981.332031
368.038086	55109.324219
366.773438	55401.367188
365.508789	55052.824219
364.244141	55107.593750
362.978516	55063.542969
361.712891	54954.304688
360.447266	54949.800781
359.181641	54660.906250
357.916016	54729.507812
356.649414	54981.675781
355.382812	54785.699219
354.116211	54254.320312
352.848633	54283.476562
351.581055	54383.632812
350.313477	54132.687500
349.045898	54924.960938
347.778320	54721.316406
346.509766	54373.855469
345.241211	54475.859375
343.972656	54550.234375
342.703125	54118.281250
341.433594	54060.726562
340.164062	53867.308594
338.894531	53866.914062
337.625000	54055.496094
336.354492	53921.226562
335.083984	54133.335938
333.813477	54111.238281
332.541992	54277.980469
331.271484	53923.496094
330.000000	53799.199219
328.727539	54148.726562
327.456055	53934.015625
326.183594	53898.207031
324.911133	53907.605469
323.638672	53842.347656
322.366211	53912.628906
321.092773	53694.222656
319.819336	53819.472656
318.545898	53769.976562
317.271484	53600.777344
315.998047	53859.394531
314.723633	53337.117188
313.449219	53683.941406
312.173828	53889.437500
310.899414	53390.972656
309.624023	53469.023438
308.347656	53586.238281
307.072266	53474.140625
305.795898	53138.734375
304.519531	53594.812500
303.243164	53351.550781
301.966797	53805.453125
300.689453	53591.605469
299.412109	53804.531250
298.134766	53285.476562
296.857422	54042.300781
295.579102	53703.363281
294.300781	53869.156250
293.022461	53510.824219
291.744141	53580.785156
290.464844	53322.328125
289.185547	52913.480469
287.906250	52686.507812
286.625977	52756.562500
285.346680	52394.929688
284.066406	52259.960938
282.786133	52458.910156
281.504883	52439.148438
280.224609	51792.890625
278.943359	52270.851562
277.662109	52496.953125
276.379883	52221.660156
275.097656	51969.871094
273.816406	51638.230469
272.533203	52059.218750
271.250977	51768.613281
269.967773	51784.074219
268.684570	51637.808594
267.401367	51949.375000
266.118164	51773.914062
264.833984	51623.832031
263.549805	51479.644531
262.265625	51726.761719
260.981445	51440.535156
259.696289	51216.683594
258.411133	51129.089844
257.125977	51632.820312
255.839844	51049.285156
254.554688	51224.246094
253.268555	51115.328125
251.982422	51113.339844
250.695312	51224.058594
249.409180	51062.738281
248.122070	51326.867188
246.833984	51099.554688
245.546875	50565.535156
244.258789	51081.976562
242.970703	50936.347656
241.682617	51056.636719
240.394531	50730.628906
239.105469	50738.394531
237.816406	50565.781250
236.527344	50719.003906
235.237305	50523.191406
233.948242	50781.027344
232.658203	50281.011719
231.368164	50226.835938
230.077148	50699.609375
228.786133	50899.097656
227.495117	51137.238281
226.204102	50676.339844
224.913086	50610.515625
223.621094	50124.730469
222.329102	50250.593750
221.037109	49917.898438
219.744141	49678.167969
218.451172	49583.574219
217.158203	49999.468750
215.865234	49624.535156
214.572266	49325.121094
213.278320	49580.425781
211.984375	49491.722656
210.690430	49178.976562
209.395508	49248.750000
208.100586	49011.472656
206.805664	49011.742188
205.510742	48620.179688
204.215820	49062.457031
202.919922	48647.871094
201.624023	48860.406250
200.327148	48916.628906
199.031250	48486.878906
197.734375	48265.511719
196.437500	48186.875000
195.140625	48071.648438
193.842773	47865.898438
192.544922	47962.687500
191.247070	48248.199219
189.949219	47869.207031
188.650391	47686.750000
187.352539	47847.015625
186.052734	47820.527344
184.753906	47555.429688
183.455078	47465.511719
182.155273	47637.230469
180.855469	47435.781250
179.554688	47299.781250
178.254883	47415.671875
176.954102	47308.558594
175.653320	47070.800781
174.351562	46969.550781
173.049805	47327.453125
171.749023	47291.492188
170.446289	46931.015625
169.144531	46849.058594
167.841797	47033.945312
166.539062	47015.328125
165.236328	46946.828125
163.933594	46615.527344
162.629883	47300.917969
161.326172	46958.164062
160.022461	46600.207031
158.718750	46551.007812
157.414062	46394.500000
156.109375	46322.359375
154.804688	46177.445312
153.499023	46254.777344
152.193359	45828.406250
150.887695	45765.996094
149.582031	45695.949219
148.276367	46096.773438
146.969727	45458.339844
145.663086	45732.773438
144.356445	45794.765625
143.048828	45460.843750
141.741211	45356.503906
140.433594	45756.914062
139.125977	45327.613281
137.817383	45360.949219
136.508789	44712.152344
135.200195	44822.000000
133.891602	44519.257812
132.582031	44071.496094
131.273438	43654.453125
129.962891	43065.769531
128.653320	42399.062500
127.342773	41759.324219
126.033203	41375.468750
124.721680	40564.503906
123.411133	39603.191406
122.099609	39534.566406
120.788086	38427.035156
119.476562	37135.050781
