#Wave		#Intensity
1999.066406	247648.015625
1998.098633	246935.015625
1997.129883	246427.062500
1996.162109	247050.375000
1995.194336	246751.703125
1994.225586	246827.453125
1993.256836	246838.625000
1992.288086	247156.890625
1991.319336	246597.765625
1990.350586	245935.640625
1989.380859	247107.593750
1988.411133	246855.625000
1987.442383	247539.687500
1986.472656	246877.812500
1985.501953	247226.546875
1984.532227	246966.968750
1983.561523	248665.656250
1982.591797	248016.906250
1981.621094	248535.140625
1980.650391	248100.359375
1979.678711	248363.468750
1978.708008	247385.671875
1977.736328	248729.828125
1976.765625	248238.671875
1975.793945	249386.640625
1974.821289	248442.750000
1973.849609	248466.265625
1972.877930	247962.593750
1971.905273	248302.437500
1970.932617	249557.328125
1969.959961	247794.250000
1968.987305	248624.750000
1968.014648	249118.359375
1967.041016	249701.703125
1966.067383	248502.281250
1965.094727	249224.187500
1964.121094	248864.859375
1963.146484	249517.109375
1962.172852	249152.718750
1961.198242	250074.125000
1960.224609	249945.796875
1959.250000	251220.734375
1958.275391	249807.203125
1957.299805	248986.546875
1956.325195	249876.375000
1955.349609	249832.734375
1954.375000	250237.640625
1953.399414	250473.265625
1952.423828	249566.046875
1951.447266	250372.953125
1950.471680	250024.421875
1949.495117	250521.093750
1948.518555	249931.953125
1947.541992	249762.843750
1946.565430	249547.703125
1945.588867	249895.640625
1944.611328	250054.109375
1943.633789	249954.140625
1942.657227	249603.515625
1941.679688	250084.140625
1940.701172	250932.781250
1939.723633	250093.875000
1938.745117	250344.093750
1937.767578	250185.343750
1936.789062	250698.609375
1935.810547	250861.703125
1934.831055	250925.125000
1933.852539	251031.921875
1932.873047	250880.781250
1931.893555	251010.515625
1930.914062	250798.156250
1929.934570	250751.750000
1928.955078	250993.671875
1927.974609	250128.328125
1926.995117	250507.984375
1926.014648	250415.718750
1925.034180	251358.656250
1924.053711	249652.562500
1923.072266	252280.046875
1922.091797	250072.343750
1921.110352	249883.359375
1920.128906	250998.750000
1919.147461	250374.109375
1918.166016	250605.328125
1917.183594	250006.406250
1916.202148	249853.203125
1915.219727	250868.296875
1914.237305	250941.453125
1913.254883	251324.984375
1912.271484	250360.093750
1911.289062	250565.531250
1910.305664	250229.218750
1909.322266	250851.578125
1908.338867	250111.109375
1907.355469	250644.296875
1906.372070	250712.218750
1905.387695	251245.078125
1904.403320	250441.515625
1903.419922	249488.375000
1902.434570	251435.640625
1901.450195	250858.406250
1900.465820	251279.031250
1899.480469	250496.421875
1898.495117	250693.625000
1897.509766	250710.609375
1896.524414	250192.312500
1895.539062	250490.890625
1894.552734	250317.671875
1893.567383	250509.609375
1892.581055	250321.218750
1891.594727	251390.046875
1890.608398	250753.000000
1889.621094	250691.328125
1888.634766	249788.625000
1887.647461	250811.156250
1886.660156	249539.000000
1885.672852	250502.968750
1884.685547	249808.484375
1883.697266	250405.031250
1882.709961	251181.046875
1881.721680	249904.843750
1880.733398	250045.703125
1879.745117	251238.656250
1878.755859	251025.187500
1877.767578	251362.953125
1876.778320	251237.984375
1875.789062	250549.421875
1874.799805	250942.656250
1873.810547	251472.187500
1872.821289	251008.734375
1871.831055	251335.984375
1870.840820	251062.109375
1869.850586	250581.265625
1868.860352	250643.343750
1867.870117	251957.250000
1866.879883	251678.359375
1865.888672	250950.453125
1864.897461	250068.921875
1863.906250	252302.562500
1862.915039	251234.468750
1861.923828	251492.921875
1860.931641	250881.609375
1859.939453	250479.671875
1858.947266	251781.375000
1857.955078	250953.609375
1856.962891	252174.140625
1855.970703	251220.640625
1854.977539	251665.062500
1853.984375	251595.703125
1852.991211	252044.937500
1851.998047	251512.406250
1851.004883	251490.890625
1850.010742	252005.281250
1849.017578	251676.765625
1848.023438	251783.484375
1847.029297	252415.703125
1846.035156	251654.828125
1845.040039	251769.000000
1844.045898	252222.406250
1843.050781	252911.875000
1842.055664	252714.187500
1841.060547	251976.468750
1840.065430	253180.453125
1839.069336	253053.109375
1838.073242	252235.359375
1837.078125	253353.281250
1836.082031	253376.515625
1835.084961	252749.828125
1834.088867	252000.406250
1833.092773	253839.984375
1832.095703	253341.406250
1831.098633	252266.265625
1830.101562	253086.890625
1829.104492	253293.078125
1828.106445	253807.437500
1827.109375	253083.750000
1826.111328	253795.875000
1825.113281	252982.234375
1824.115234	253338.484375
1823.116211	252219.687500
1822.118164	253059.125000
1821.119141	253037.140625
1820.120117	252812.453125
1819.121094	253753.890625
1818.122070	253068.781250
1817.122070	253419.500000
1816.123047	252889.734375
1815.123047	253225.328125
1814.123047	253203.281250
1813.123047	253516.187500
1812.123047	253294.140625
1811.122070	254244.093750
1810.122070	253924.546875
1809.121094	253150.484375
1808.120117	253125.906250
1807.118164	253243.671875
1806.117188	253773.312500
1805.115234	253693.703125
1804.114258	253718.937500
1803.112305	253367.359375
1802.110352	253397.609375
1801.107422	253527.609375
1800.105469	253887.000000
1799.102539	253528.125000
1798.099609	253555.781250
1797.096680	252444.296875
1796.093750	253481.453125
1795.090820	253593.796875
1794.086914	253601.453125
1793.083008	252839.421875
1792.079102	253464.828125
1791.075195	253355.437500
1790.071289	253046.921875
1789.067383	253126.812500
1788.062500	254358.921875
1787.057617	251850.750000
1786.052734	253764.281250
1785.047852	252806.703125
1784.041992	252801.953125
1783.037109	253533.203125
1782.031250	253931.046875
1781.025391	253304.671875
1780.019531	253461.328125
1779.013672	252710.984375
1778.006836	252405.593750
1777.000977	251983.562500
1775.994141	252217.296875
1774.987305	252798.546875
1773.980469	251929.781250
1772.972656	253667.531250
1771.965820	252198.328125
1770.958008	251776.703125
1769.950195	252044.890625
1768.942383	252246.015625
1767.934570	251197.156250
1766.925781	252546.343750
1765.917969	251735.781250
1764.909180	251778.125000
1763.900391	252308.656250
1762.891602	251580.296875
1761.881836	251285.718750
1760.873047	251825.937500
1759.863281	250417.000000
1758.853516	251751.953125
1757.843750	251606.031250
1756.833984	251182.953125
1755.823242	251465.281250
1754.812500	251262.562500
1753.802734	251722.875000
1752.791992	250869.671875
1751.780273	250763.562500
1750.769531	251248.421875
1749.757812	251298.015625
1748.747070	250489.937500
1747.735352	251449.015625
1746.723633	251278.625000
1745.710938	251088.515625
1744.699219	251770.328125
1743.686523	251002.328125
1742.673828	251313.546875
1741.661133	251269.171875
1740.648438	250859.515625
1739.635742	251136.031250
1738.622070	250077.625000
1737.608398	251049.796875
1736.594727	250554.109375
1735.581055	250465.468750
1734.567383	250436.015625
1733.552734	250793.578125
1732.539062	251138.703125
1731.524414	250436.375000
1730.509766	249788.515625
1729.495117	250687.843750
1728.479492	250897.218750
1727.464844	250005.796875
1726.449219	250589.437500
1725.433594	250257.140625
1724.417969	250638.703125
1723.401367	250316.343750
1722.385742	251285.734375
1721.369141	250687.859375
1720.352539	250921.453125
1719.335938	250810.703125
1718.319336	250223.031250
1717.301758	249888.718750
1716.285156	250488.468750
1715.267578	251412.328125
1714.250000	250527.640625
1713.232422	249974.875000
1712.213867	250935.156250
1711.196289	251595.500000
1710.177734	250976.515625
1709.159180	250674.390625
1708.140625	250600.593750
1707.122070	250872.812500
1706.102539	250568.375000
1705.083984	250857.640625
1704.064453	250281.078125
1703.044922	251359.828125
1702.025391	250849.546875
1701.004883	251212.062500
1699.985352	250792.640625
1698.964844	250348.859375
1697.944336	251659.343750
1696.923828	250759.937500
1695.903320	250879.640625
1694.881836	250707.921875
1693.860352	250979.343750
1692.838867	249999.890625
1691.817383	250295.812500
1690.795898	250784.906250
1689.774414	250801.671875
1688.751953	251373.656250
1687.729492	250886.500000
1686.707031	251509.593750
1685.684570	251301.250000
1684.662109	250293.718750
1683.638672	251503.062500
1682.616211	250517.812500
1681.592773	251037.765625
1680.569336	250492.593750
1679.544922	249783.968750
1678.521484	249861.796875
1677.497070	250317.984375
1676.472656	250412.765625
1675.448242	250573.390625
1674.423828	250021.484375
1673.399414	250182.093750
1672.374023	250864.593750
1671.348633	250683.578125
1670.323242	249788.218750
1669.297852	250236.375000
1668.272461	249151.281250
1667.246094	249355.687500
1666.220703	250834.281250
1665.194336	250124.781250
1664.167969	249079.406250
1663.140625	249702.468750
1662.114258	250203.578125
1661.086914	248883.640625
1660.059570	249873.906250
1659.032227	249333.171875
1658.004883	249816.921875
1656.977539	248600.109375
1655.949219	249232.156250
1654.921875	249319.265625
1653.893555	249117.015625
1652.865234	248606.093750
1651.835938	248452.625000
1650.807617	249769.343750
1649.778320	248522.406250
1648.749023	248123.656250
1647.719727	247751.750000
1646.690430	247554.812500
1645.660156	247729.390625
1644.630859	247233.921875
1643.600586	248316.171875
1642.570312	246964.187500
1641.540039	247415.281250
1640.508789	247827.390625
1639.478516	247094.625000
1638.447266	247637.578125
1637.416016	248270.015625
1636.384766	246873.375000
1635.353516	247142.171875
1634.321289	246778.437500
1633.290039	246790.343750
1632.257812	246538.203125
1631.225586	246278.890625
1630.192383	246784.796875
1629.160156	245804.062500
1628.126953	245905.640625
1627.094727	246142.687500
1626.061523	246142.515625
1625.027344	246391.515625
1623.994141	245895.437500
1622.959961	245530.109375
1621.926758	245510.656250
1620.892578	246180.203125
1619.858398	245111.609375
1618.823242	245737.468750
1617.789062	245418.359375
1616.753906	244944.734375
1615.718750	244968.828125
1614.683594	245618.375000
1613.648438	245280.140625
1612.612305	244015.015625
1611.577148	245101.234375
1610.541016	244389.187500
1609.504883	244582.203125
1608.468750	244550.781250
1607.431641	243819.890625
1606.395508	244726.671875
1605.358398	244157.531250
1604.321289	244319.031250
1603.284180	244032.140625
1602.247070	244473.109375
1601.208984	243473.109375
1600.170898	244542.734375
1599.132812	244082.562500
1598.094727	244518.343750
1597.056641	243904.234375
1596.018555	243930.656250
1594.979492	243295.171875
1593.940430	243266.328125
1592.901367	243995.343750
1591.862305	243110.000000
1590.822266	243319.265625
1589.783203	243725.640625
1588.743164	243227.859375
1587.703125	244326.375000
1586.663086	243131.671875
1585.622070	243816.484375
1584.582031	243403.093750
1583.541016	244029.937500
1582.500000	243297.218750
1581.458984	243277.921875
1580.417969	243378.640625
1579.375977	243608.953125
1578.334961	244283.156250
1577.292969	243503.000000
1576.250977	244037.812500
1575.208008	243169.218750
1574.166016	242629.468750
1573.123047	243600.515625
1572.081055	243334.171875
1571.037109	243561.687500
1569.994141	243547.046875
1568.951172	243077.156250
1567.907227	244085.546875
1566.863281	242961.796875
1565.820312	243122.062500
1564.775391	243251.140625
1563.731445	243535.765625
1562.686523	243645.546875
1561.642578	242960.765625
1560.597656	243833.859375
1559.552734	243735.375000
1558.506836	243275.750000
1557.461914	243526.515625
1556.416016	243074.250000
1555.370117	243468.390625
1554.324219	244127.671875
1553.278320	243441.312500
1552.231445	243376.406250
1551.185547	243149.062500
1550.138672	243337.375000
1549.091797	243360.843750
1548.044922	244050.421875
1546.997070	241996.906250
1545.950195	242996.750000
1544.902344	243583.375000
1543.854492	244081.515625
1542.806641	243310.406250
1541.757812	243522.203125
1540.709961	243411.984375
1539.661133	243344.703125
1538.612305	243580.187500
1537.563477	243284.078125
1536.514648	241975.359375
1535.464844	243092.421875
1534.415039	243334.890625
1533.366211	242488.843750
1532.316406	241933.609375
1531.265625	243473.625000
1530.215820	242635.125000
1529.165039	242122.968750
1528.114258	241977.421875
1527.063477	242569.421875
1526.012695	242128.875000
1524.960938	241695.625000
1523.910156	241749.953125
1522.858398	242486.546875
1521.806641	241775.312500
1520.754883	241850.968750
1519.702148	242045.375000
1518.650391	240904.578125
1517.597656	241958.906250
1516.544922	241818.312500
1515.492188	241250.375000
1514.439453	242038.156250
1513.385742	241617.515625
1512.332031	241135.312500
1511.278320	240482.437500
1510.224609	241132.171875
1509.170898	240415.468750
1508.116211	240137.734375
1507.062500	240516.843750
1506.007812	241263.265625
1504.953125	239598.953125
1503.897461	240181.718750
1502.842773	240406.515625
1501.787109	239309.375000
1500.731445	239865.812500
1499.675781	239280.640625
1498.620117	239787.140625
1497.563477	238998.593750
1496.507812	239916.765625
1495.451172	238832.671875
1494.394531	239909.031250
1493.337891	239267.656250
1492.280273	238240.984375
1491.223633	238983.421875
1490.166016	238297.609375
1489.108398	238054.046875
1488.050781	237453.703125
1486.992188	237687.687500
1485.934570	237255.328125
1484.875977	237517.593750
1483.817383	238268.609375
1482.758789	237470.375000
1481.699219	238723.968750
1480.640625	237491.593750
1479.581055	238131.125000
1478.521484	238012.984375
1477.461914	237510.343750
1476.402344	236925.312500
1475.341797	236661.218750
1474.282227	237250.765625
1473.221680	236552.906250
1472.161133	236703.828125
1471.099609	236826.406250
1470.039062	236180.812500
1468.977539	235738.031250
1467.916016	236093.859375
1466.854492	235408.671875
1465.792969	236148.203125
1464.730469	235604.484375
1463.668945	236407.250000
1462.606445	235741.281250
1461.543945	235877.859375
1460.481445	234868.765625
1459.417969	234575.015625
1458.354492	235673.484375
1457.291992	235287.984375
1456.228516	234695.750000
1455.164062	234296.453125
1454.100586	234813.734375
1453.036133	234480.312500
1451.971680	233693.625000
1450.907227	234069.796875
1449.842773	234274.390625
1448.778320	233751.093750
1447.712891	234784.281250
1446.648438	234249.328125
1445.583008	234033.671875
1444.516602	234388.203125
1443.451172	234296.906250
1442.384766	233506.750000
1441.319336	233924.468750
1440.252930	233561.328125
1439.186523	233327.218750
1438.119141	233744.703125
1437.052734	233112.296875
1435.985352	233843.578125
1434.917969	232792.093750
1433.850586	233715.187500
1432.782227	233710.703125
1431.714844	232760.453125
1430.646484	233193.828125
1429.578125	233102.828125
1428.509766	232904.234375
1427.441406	232078.750000
1426.372070	232612.468750
1425.303711	232229.296875
1424.234375	232196.953125
1423.165039	232356.312500
1422.094727	232038.796875
1421.025391	232247.187500
1419.955078	231607.359375
1418.884766	231355.531250
1417.814453	232467.765625
1416.744141	231057.609375
1415.672852	231469.062500
1414.602539	232011.062500
1413.531250	230786.109375
1412.459961	231640.703125
1411.388672	231489.437500
1410.316406	230993.000000
1409.244141	231364.296875
1408.172852	230725.781250
1407.099609	230966.437500
1406.027344	230794.390625
1404.955078	231163.109375
1403.881836	230704.468750
1402.808594	230607.093750
1401.735352	230458.500000
1400.662109	230400.781250
1399.588867	229581.656250
1398.514648	230308.640625
1397.440430	229731.890625
1396.366211	229897.718750
1395.291992	229444.546875
1394.216797	229459.125000
1393.142578	229901.671875
1392.067383	229799.859375
1390.992188	229353.968750
1389.916992	228371.218750
1388.840820	229317.968750
1387.765625	229246.515625
1386.689453	229123.968750
1385.613281	228567.031250
1384.537109	228744.250000
1383.459961	228505.703125
1382.383789	229258.640625
1381.306641	228216.890625
1380.229492	228208.328125
1379.152344	228561.750000
1378.074219	228843.125000
1376.997070	228901.687500
1375.918945	228686.546875
1374.840820	228258.140625
1373.762695	226832.953125
1372.683594	227420.312500
1371.605469	227662.125000
1370.526367	228833.015625
1369.447266	227790.984375
1368.368164	227805.562500
1367.288086	227106.828125
1366.208984	227874.046875
1365.128906	227694.109375
1364.048828	227236.468750
1362.968750	227269.593750
1361.887695	227311.968750
1360.807617	228099.234375
1359.726562	227246.281250
1358.645508	226532.390625
1357.564453	226736.671875
1356.482422	226182.609375
1355.401367	227258.234375
1354.319336	225969.390625
1353.237305	226358.437500
1352.155273	226518.625000
1351.073242	226390.046875
1349.990234	225552.546875
1348.907227	225835.140625
1347.824219	225196.546875
1346.741211	226233.812500
1345.658203	225842.265625
1344.574219	225946.906250
1343.490234	225906.187500
1342.406250	225863.156250
1341.322266	226417.359375
1340.238281	225588.046875
1339.153320	225047.171875
1338.068359	224953.578125
1336.983398	225387.687500
1335.898438	225897.671875
1334.813477	225191.234375
1333.727539	224805.156250
1332.641602	225416.250000
1331.556641	225048.671875
1330.469727	224416.515625
1329.383789	224857.015625
1328.296875	225090.265625
1327.210938	225426.937500
1326.124023	225310.359375
1325.036133	224979.953125
1323.949219	224445.000000
1322.861328	224238.984375
1321.774414	223807.765625
1320.686523	224824.468750
1319.597656	224223.281250
1318.509766	223431.609375
1317.420898	224011.406250
1316.333008	223732.156250
1315.244141	224575.703125
1314.154297	223835.015625
1313.065430	222713.593750
1311.975586	222466.843750
1310.886719	223791.796875
1309.796875	223423.343750
1308.706055	222325.703125
1307.616211	222739.578125
1306.525391	222497.593750
1305.435547	222372.593750
1304.344727	222534.093750
1303.252930	222338.078125
1302.162109	221475.453125
1301.070312	220936.078125
1299.979492	221017.546875
1298.887695	221930.140625
1297.794922	221519.171875
1296.703125	221197.593750
1295.610352	221082.109375
1294.517578	221016.984375
1293.424805	220457.718750
1292.332031	220756.390625
1291.239258	220233.953125
1290.145508	220102.687500
1289.051758	220126.906250
1287.958008	219970.546875
1286.864258	220344.390625
1285.769531	219852.156250
1284.675781	219339.546875
1283.581055	220087.843750
1282.486328	218856.031250
1281.391602	218343.828125
1280.295898	220059.765625
1279.201172	219052.250000
1278.105469	218378.265625
1277.009766	219016.359375
1275.913086	218399.625000
1274.817383	217662.218750
1273.720703	218181.500000
1272.624023	217952.796875
1271.527344	217033.500000
1270.430664	217317.843750
1269.333008	217344.593750
1268.236328	216863.296875
1267.138672	216887.828125
1266.041016	216971.546875
1264.942383	216984.640625
1263.844727	216030.187500
1262.746094	215975.140625
1261.647461	215904.187500
1260.548828	216245.062500
1259.450195	216533.500000
1258.350586	214943.093750
1257.250977	215711.468750
1256.152344	216099.843750
1255.051758	214733.140625
1253.952148	216064.765625
1252.852539	215362.078125
1251.751953	213759.921875
1250.651367	214532.156250
1249.550781	214413.796875
1248.449219	214615.656250
1247.348633	214172.656250
1246.247070	213927.281250
1245.145508	214401.437500
1244.043945	213913.296875
1242.941406	214031.062500
1241.839844	213697.390625
1240.737305	213892.265625
1239.634766	213307.031250
1238.532227	213456.531250
1237.428711	212459.031250
1236.326172	213073.203125
1235.222656	213845.734375
1234.119141	213310.843750
1233.015625	213086.437500
1231.911133	212619.781250
1230.807617	213308.031250
1229.703125	213140.312500
1228.598633	214022.859375
1227.493164	212685.093750
1226.388672	213028.890625
1225.283203	213107.875000
1224.177734	212707.343750
1223.072266	212526.281250
1221.966797	212982.875000
1220.861328	211886.312500
1219.754883	211682.875000
1218.648438	212229.734375
1217.541992	212543.656250
1216.435547	212911.687500
1215.328125	212484.593750
1214.220703	211660.218750
1213.113281	212694.187500
1212.005859	211671.421875
1210.898438	213027.718750
1209.790039	212070.687500
1208.682617	212528.500000
1207.574219	212009.468750
1206.464844	212259.640625
1205.356445	212189.531250
1204.248047	212419.265625
1203.138672	211077.906250
1202.029297	212141.562500
1200.919922	211291.906250
1199.809570	212066.750000
1198.700195	213206.187500
1197.589844	211953.687500
1196.479492	212268.671875
1195.368164	211998.234375
1194.257812	211514.093750
1193.146484	211691.687500
1192.036133	211054.750000
1190.923828	211812.703125
1189.812500	211137.734375
1188.701172	211857.156250
1187.588867	211915.312500
1186.476562	212106.078125
1185.364258	211438.250000
1184.251953	210950.421875
1183.138672	210332.437500
1182.026367	211262.312500
1180.913086	212227.765625
1179.799805	210918.296875
1178.685547	210913.609375
1177.572266	210495.937500
1176.458008	210879.546875
1175.343750	211002.750000
1174.229492	210342.968750
1173.114258	210874.406250
1172.000000	210297.843750
1170.884766	210347.031250
1169.769531	209391.921875
1168.654297	210136.031250
1167.538086	210008.156250
1166.422852	210451.656250
1165.306641	209270.921875
1164.190430	209400.812500
1163.074219	209476.906250
1161.957031	209235.046875
1160.840820	208894.781250
1159.723633	208214.453125
1158.606445	209646.656250
1157.488281	207404.843750
1156.371094	208040.359375
1155.252930	208666.703125
1154.134766	208011.578125
1153.016602	208000.531250
1151.898438	207692.187500
1150.779297	207737.062500
1149.661133	207066.906250
1148.541992	207239.187500
1147.421875	206978.078125
1146.302734	207328.953125
1145.183594	207833.734375
1144.063477	207367.265625
1142.943359	206099.703125
1141.823242	206689.203125
1140.702148	206330.265625
1139.581055	206087.453125
1138.460938	206939.781250
1137.339844	205849.562500
1136.217773	206050.609375
1135.096680	205651.937500
1133.974609	205563.203125
1132.852539	205726.265625
1131.730469	204639.453125
1130.608398	204998.640625
1129.485352	205945.609375
1128.363281	205798.953125
1127.240234	204797.484375
1126.117188	204915.937500
1124.993164	204368.953125
1123.870117	204445.156250
1122.746094	203168.765625
1121.622070	204397.281250
1120.498047	204324.421875
1119.373047	204609.546875
1118.249023	204687.812500
1117.124023	203628.093750
1115.999023	204157.593750
1114.874023	203864.843750
1113.748047	203094.593750
1112.623047	203997.000000
1111.497070	203133.734375
1110.371094	202581.593750
1109.244141	202682.234375
1108.118164	203188.984375
1106.991211	202743.609375
1105.864258	203440.937500
1104.737305	203698.812500
1103.610352	202696.921875
1102.482422	202378.312500
1101.355469	202829.078125
1100.227539	202251.218750
1099.098633	202010.406250
1097.970703	202598.343750
1096.841797	201610.984375
1095.713867	202010.500000
1094.584961	201586.078125
1093.455078	202069.562500
1092.326172	201866.625000
1091.196289	202507.000000
1090.066406	202133.656250
1088.936523	202240.531250
1087.806641	201489.093750
1086.675781	202547.046875
1085.545898	201959.437500
1084.415039	201867.250000
1083.284180	201291.015625
1082.152344	201640.984375
1081.021484	201926.734375
1079.889648	201947.265625
1078.757812	201159.343750
1077.625977	202591.171875
1076.493164	201295.562500
1075.361328	201395.640625
1074.228516	201338.953125
1073.095703	202063.484375
1071.962891	201739.703125
1070.829102	201991.796875
1069.695312	201489.468750
1068.561523	201468.062500
1067.427734	202518.171875
1066.293945	200916.015625
1065.159180	201527.234375
1064.025391	201695.296875
1062.890625	201568.062500
1061.755859	201573.031250
1060.620117	201558.187500
1059.485352	201087.515625
1058.349609	200956.046875
1057.213867	200945.687500
1056.078125	200514.968750
1054.941406	201538.843750
1053.804688	200657.171875
1052.668945	200244.328125
1051.531250	200414.390625
1050.394531	200850.421875
1049.257812	200200.312500
1048.120117	200409.828125
1046.982422	200428.078125
1045.844727	200481.453125
1044.706055	200282.187500
1043.568359	199516.328125
1042.429688	199477.593750
1041.291016	199774.765625
1040.152344	199433.062500
1039.012695	199594.046875
1037.874023	199805.453125
1036.734375	198884.687500
1035.594727	199354.953125
1034.454102	199184.656250
1033.314453	199330.140625
1032.173828	199508.468750
1031.033203	199561.781250
1029.892578	199321.390625
1028.751953	198837.875000
1027.610352	199325.015625
1026.468750	198633.578125
1025.327148	198640.953125
1024.185547	198823.500000
1023.043945	198587.828125
1021.901367	198080.859375
1020.758789	198066.421875
1019.616211	197920.703125
1018.473633	197939.093750
1017.330078	197231.359375
1016.187500	197656.578125
1015.043945	197504.453125
1013.900391	198416.906250
1012.755859	197550.031250
1011.612305	198628.171875
1010.467773	197003.468750
1009.323242	197262.203125
1008.178711	197603.828125
1007.033203	197174.546875
1005.887695	197692.859375
1004.743164	197019.250000
1003.597656	197382.437500
1002.451172	197082.203125
1001.305664	197696.109375
1000.159180	196732.875000
999.012695	197191.765625
997.866211	197011.671875
996.718750	196792.390625
995.572266	196721.390625
994.424805	196650.406250
993.277344	197023.890625
992.129883	196188.281250
990.981445	196383.109375
989.833984	196651.890625
988.685547	196398.062500
987.537109	196705.906250
986.387695	196352.031250
985.239258	196144.062500
984.089844	196815.062500
982.940430	196413.500000
981.791016	196192.562500
980.640625	196006.484375
979.491211	196144.375000
978.340820	195647.562500
977.190430	196561.234375
976.040039	196294.812500
974.888672	195667.859375
973.738281	195781.765625
972.586914	195684.968750
971.434570	196191.765625
970.283203	196370.593750
969.131836	195956.859375
967.979492	195818.843750
966.827148	196093.078125
965.674805	195614.531250
964.521484	195836.625000
963.368164	195232.515625
962.215820	195255.140625
961.061523	195917.156250
959.908203	195621.078125
958.754883	195944.750000
957.600586	195960.703125
956.446289	195881.328125
955.291992	195132.843750
954.136719	195064.453125
952.982422	195515.625000
951.827148	194988.343750
950.671875	195478.296875
949.516602	194483.875000
948.360352	194820.140625
947.204102	195852.656250
946.048828	194491.109375
944.891602	195341.687500
943.735352	194002.328125
942.578125	194556.593750
941.421875	194177.218750
940.264648	194387.750000
939.106445	194598.187500
937.949219	194020.296875
936.791016	194317.078125
935.632812	194527.375000
934.474609	194431.125000
933.316406	194078.093750
932.157227	194178.265625
930.999023	193939.718750
929.839844	194080.843750
928.680664	193853.156250
927.520508	193209.468750
926.360352	193212.671875
925.201172	193371.015625
924.041016	192331.265625
922.879883	193015.375000
921.719727	192441.312500
920.558594	192948.531250
919.397461	192361.765625
918.236328	192614.765625
917.075195	193026.953125
915.913086	192291.968750
914.750977	193026.781250
913.588867	191915.593750
912.426758	192245.843750
911.263672	192857.656250
910.101562	192327.578125
908.938477	191455.921875
907.775391	192531.734375
906.611328	191408.937500
905.448242	191309.171875
904.284180	191686.296875
903.120117	192935.203125
901.956055	191879.671875
900.791016	191344.062500
899.625977	191210.015625
898.461914	191374.312500
897.295898	191566.421875
896.130859	190758.781250
894.964844	191384.187500
893.799805	191203.046875
892.633789	190792.531250
891.466797	190988.828125
890.300781	190396.312500
889.133789	190633.312500
887.966797	190863.781250
886.799805	190451.531250
885.632812	190178.625000
884.465820	190957.203125
883.297852	189669.515625
882.129883	190041.171875
880.961914	189513.843750
879.792969	190771.218750
878.624023	190040.703125
877.456055	190332.843750
876.287109	190126.593750
875.117188	190555.437500
873.948242	190603.593750
872.778320	189726.265625
871.608398	190552.390625
870.438477	190403.937500
869.267578	189655.281250
868.097656	189861.562500
866.926758	189597.984375
865.755859	190401.968750
864.583984	190778.734375
863.413086	189761.750000
862.241211	190400.937500
861.069336	190790.281250
859.897461	189718.359375
858.725586	190468.078125
857.552734	189345.421875
856.379883	190610.796875
855.207031	190677.859375
854.034180	189973.453125
852.860352	190108.750000
851.686523	189939.375000
850.512695	191369.562500
849.338867	190367.390625
848.165039	189559.328125
846.990234	190241.609375
845.815430	189657.312500
844.640625	190077.562500
843.465820	190389.171875
842.290039	190377.328125
841.115234	190656.843750
839.939453	191291.328125
838.762695	190303.515625
837.586914	191084.468750
836.410156	190889.703125
835.233398	190612.140625
834.056641	190880.625000
832.879883	190802.796875
831.703125	190718.625000
830.525391	189054.859375
829.347656	190195.843750
828.169922	189920.781250
826.991211	190324.843750
825.812500	190533.578125
824.634766	190568.265625
823.455078	190577.500000
822.276367	191089.250000
821.097656	190708.281250
819.917969	190416.468750
818.738281	190777.468750
817.558594	191004.843750
816.377930	191009.703125
815.197266	190254.156250
814.017578	190911.359375
812.835938	191081.343750
811.655273	190478.609375
810.474609	190413.656250
809.292969	190609.000000
808.111328	189517.937500
806.929688	190136.421875
805.747070	189688.750000
804.564453	190734.078125
803.381836	191508.406250
802.199219	190538.625000
801.016602	190666.015625
799.833008	190497.531250
798.650391	189177.765625
797.466797	189860.796875
796.282227	189757.984375
795.098633	188939.468750
793.914062	189440.593750
792.729492	188871.453125
791.544922	189885.171875
790.360352	188862.546875
789.174805	189409.687500
787.989258	189106.687500
786.803711	188949.281250
785.618164	188950.046875
784.431641	189252.218750
783.246094	189246.578125
782.059570	188912.234375
780.872070	189551.296875
779.685547	188665.156250
778.498047	188811.218750
777.310547	188976.187500
776.123047	188831.609375
774.935547	187687.359375
773.747070	188755.156250
772.559570	189077.750000
771.371094	189143.593750
770.181641	188443.859375
768.993164	188694.828125
767.803711	189162.218750
766.614258	188895.859375
765.424805	188740.968750
764.235352	188596.625000
763.044922	188622.484375
761.855469	188644.140625
760.665039	187955.968750
759.473633	187362.531250
758.283203	187197.531250
757.091797	187813.375000
755.900391	187593.796875
754.708984	188370.859375
753.517578	187167.421875
752.325195	187935.875000
751.132812	187672.359375
749.940430	187509.578125
748.748047	187543.859375
747.554688	187578.140625
746.361328	186571.000000
745.167969	187751.359375
743.974609	187094.343750
742.781250	187719.203125
741.586914	187127.328125
740.392578	187412.796875
739.198242	187122.562500
738.003906	186583.421875
736.808594	187324.906250
735.613281	186888.406250
734.417969	186974.921875
733.222656	187063.484375
732.027344	187703.953125
730.831055	187480.875000
729.634766	186762.578125
728.438477	187521.812500
727.241211	187234.109375
726.044922	186904.734375
724.847656	186807.265625
723.650391	186599.171875
722.452148	187313.843750
721.254883	187792.406250
720.056641	187527.875000
718.858398	187843.453125
717.660156	187238.968750
716.460938	186707.718750
715.262695	186577.000000
714.063477	186971.703125
712.864258	186530.390625
711.664062	187247.984375
710.464844	186560.890625
709.264648	187059.437500
708.064453	187176.609375
706.863281	186825.187500
705.663086	186363.515625
704.461914	186903.328125
703.260742	187218.140625
702.059570	186800.343750
700.858398	187408.406250
699.656250	186919.968750
698.454102	186286.140625
697.251953	186979.171875
696.048828	186669.875000
694.846680	186815.890625
693.643555	186851.703125
692.440430	186856.328125
691.237305	186698.890625
690.033203	186340.031250
688.830078	186639.609375
687.625977	186322.406250
686.420898	187261.234375
685.216797	186680.421875
684.011719	187180.968750
682.806641	186758.046875
681.601562	186667.171875
680.396484	186638.546875
679.190430	186188.984375
677.985352	187634.484375
676.778320	186544.390625
675.572266	186764.468750
674.366211	186348.343750
673.159180	186444.062500
671.952148	185267.968750
670.745117	187064.015625
669.537109	186552.859375
668.330078	185990.140625
667.122070	185829.140625
665.914062	186042.750000
664.705078	186670.046875
663.497070	186149.062500
662.288086	186567.203125
661.079102	186201.500000
659.870117	186294.875000
658.660156	186276.593750
657.450195	185863.593750
656.240234	185512.718750
655.030273	185226.000000
653.820312	184410.625000
652.609375	185551.187500
651.398438	184909.468750
650.187500	185925.625000
648.976562	184832.078125
647.764648	185482.609375
646.552734	185012.593750
645.340820	185279.156250
644.128906	184988.765625
642.916992	184750.031250
641.704102	185090.671875
640.491211	184631.437500
639.278320	184425.843750
638.064453	184646.843750
636.850586	184095.218750
635.637695	184606.578125
634.422852	183560.921875
633.208984	183287.734375
631.994141	184507.078125
630.780273	184363.453125
629.564453	184761.078125
628.349609	184284.156250
627.134766	184021.328125
625.918945	184248.062500
624.703125	183676.906250
623.487305	183552.046875
622.270508	183474.515625
621.053711	184184.093750
619.836914	183679.078125
618.620117	184651.281250
617.403320	183883.453125
616.185547	183820.250000
614.967773	184485.937500
613.750000	183014.453125
612.532227	183967.359375
611.313477	184062.156250
610.094727	184316.937500
608.875977	183150.140625
607.657227	182890.234375
606.438477	183243.484375
605.218750	183180.437500
603.999023	183379.765625
602.779297	183247.031250
601.558594	183374.546875
600.338867	182668.250000
599.118164	182894.109375
597.896484	182358.125000
596.675781	182794.828125
595.454102	182871.093750
594.233398	181958.796875
593.011719	183248.578125
591.789062	182917.562500
590.567383	183104.156250
589.344727	182599.453125
588.122070	182794.203125
586.899414	182839.640625
585.675781	182909.578125
584.452148	182072.140625
583.228516	182612.109375
582.004883	183080.359375
580.781250	182184.109375
579.556641	182188.718750
578.332031	182558.765625
577.107422	182759.234375
575.882812	183220.859375
574.657227	182441.703125
573.431641	183264.281250
572.206055	183252.312500
570.980469	181918.859375
569.753906	182072.281250
568.527344	183036.984375
567.300781	182845.671875
566.074219	182524.000000
564.847656	182361.359375
563.620117	182168.218750
562.392578	182492.453125
561.165039	182570.156250
559.936523	182106.296875
558.708008	182389.609375
557.480469	182239.343750
556.250977	182097.250000
555.022461	181670.406250
553.792969	181414.562500
552.563477	181457.750000
551.333984	181462.265625
550.104492	181643.640625
548.874023	181030.250000
547.644531	180786.921875
546.414062	181577.781250
545.182617	179794.718750
543.952148	180652.468750
542.720703	180307.828125
541.489258	180822.062500
540.257812	179476.828125
539.025391	180047.828125
537.793945	179833.390625
536.561523	179442.531250
535.328125	179710.968750
534.095703	179431.796875
532.862305	179558.203125
531.628906	178373.046875
530.395508	178550.250000
529.162109	178565.281250
527.927734	178582.328125
526.693359	178184.125000
525.458984	178496.890625
524.224609	178117.046875
522.989258	178575.453125
521.754883	177594.593750
520.519531	178285.625000
519.283203	177448.828125
518.047852	177684.453125
516.811523	178476.187500
515.575195	177354.671875
514.338867	177210.078125
513.101562	177498.093750
511.865234	177181.718750
510.627930	176885.671875
509.390625	176856.390625
508.152344	177465.390625
506.914062	176404.046875
505.676758	177535.812500
504.437500	176902.812500
503.199219	177376.078125
501.959961	177358.796875
500.721680	177351.593750
499.481445	177937.453125
498.242188	176822.906250
497.002930	177269.484375
495.762695	176879.218750
494.522461	177908.125000
493.281250	176901.218750
492.041016	177556.953125
490.799805	176989.625000
489.558594	176388.265625
488.317383	176812.125000
487.075195	176802.937500
485.833984	176811.859375
484.591797	176925.437500
483.348633	176918.218750
482.106445	176657.500000
480.863281	176875.609375
479.620117	177206.250000
478.376953	177174.828125
477.133789	176329.218750
475.889648	176448.703125
474.645508	177789.953125
473.401367	177302.328125
472.157227	177074.000000
470.912109	176930.109375
469.666992	176954.953125
468.421875	176144.562500
467.176758	176436.500000
465.930664	176654.046875
464.684570	176554.484375
463.438477	175899.234375
462.192383	176050.546875
460.945312	175700.437500
459.699219	176435.187500
458.452148	175307.312500
457.204102	176238.265625
455.957031	176120.796875
454.708984	175879.171875
453.460938	175359.171875
452.212891	174733.218750
450.963867	175358.984375
449.715820	174396.921875
448.466797	174317.921875
447.217773	174214.937500
445.967773	174946.343750
444.717773	174297.125000
443.467773	174092.171875
442.217773	174259.234375
440.967773	173352.562500
439.716797	173567.671875
438.465820	173562.828125
437.214844	173741.812500
435.963867	173139.578125
434.711914	172877.125000
433.459961	173026.171875
432.208008	172941.531250
430.956055	172679.234375
429.703125	173033.781250
428.450195	172232.750000
427.197266	172305.906250
425.944336	172059.859375
424.691406	172855.000000
423.437500	172144.312500
422.183594	172723.796875
420.928711	172158.890625
419.674805	173166.625000
418.419922	172725.375000
417.165039	172987.515625
415.910156	173719.625000
414.654297	173551.328125
413.399414	173562.265625
412.143555	173658.796875
410.886719	173414.937500
409.630859	173837.796875
408.374023	172340.562500
407.117188	172602.328125
405.860352	172078.406250
404.602539	171093.359375
403.345703	171555.968750
402.087891	170666.781250
400.830078	170936.515625
399.571289	171237.937500
398.313477	170307.578125
397.054688	171103.531250
395.794922	170030.562500
394.536133	170593.953125
393.276367	170488.171875
392.016602	170995.687500
390.756836	170403.703125
389.497070	170155.156250
388.236328	170390.671875
386.975586	169212.109375
385.714844	170326.062500
384.454102	170218.437500
383.192383	170273.375000
381.930664	169931.937500
380.668945	169388.546875
379.407227	170071.515625
378.144531	169262.906250
376.882812	168880.312500
375.620117	168816.593750
374.356445	168554.953125
373.093750	168564.531250
371.830078	168629.500000
370.566406	168484.750000
369.301758	168688.140625
368.038086	168007.500000
366.773438	168135.765625
365.508789	168220.484375
364.244141	167702.359375
362.978516	168061.765625
361.712891	166915.609375
360.447266	167646.359375
359.181641	166972.703125
357.916016	166370.359375
356.649414	166074.234375
355.382812	166421.656250
354.116211	166551.859375
352.848633	165995.406250
351.581055	165259.640625
350.313477	165683.843750
349.045898	165650.406250
347.778320	165419.812500
346.509766	165155.781250
345.241211	165270.234375
343.972656	164876.281250
342.703125	165118.781250
341.433594	164683.625000
340.164062	164922.109375
338.894531	164282.375000
337.625000	164292.484375
336.354492	164127.421875
335.083984	164385.484375
333.813477	163958.781250
332.541992	163567.640625
331.271484	163825.640625
330.000000	163774.828125
328.727539	163242.375000
327.456055	164127.265625
326.183594	163423.953125
324.911133	163799.578125
323.638672	163008.203125
322.366211	163293.390625
321.092773	163625.609375
319.819336	177718.328125
318.545898	163531.937500
317.271484	163231.953125
315.998047	162857.515625
314.723633	162879.484375
313.449219	162499.359375
312.173828	163076.343750
310.899414	162108.109375
309.624023	162639.843750
308.347656	163151.781250
307.072266	162652.390625
305.795898	162564.593750
304.519531	163262.328125
303.243164	164743.140625
301.966797	164294.703125
300.689453	164249.703125
299.412109	164382.828125
298.134766	164435.671875
296.857422	165155.671875
295.579102	165722.796875
294.300781	166244.718750
293.022461	165802.406250
291.744141	163727.750000
290.464844	162443.593750
289.185547	161199.000000
287.906250	160529.328125
286.625977	160514.359375
285.346680	159731.781250
284.066406	158748.343750
282.786133	158544.312500
281.504883	158369.625000
280.224609	157377.234375
278.943359	157952.140625
277.662109	157933.734375
276.379883	157271.609375
275.097656	156488.828125
273.816406	156753.406250
272.533203	156702.062500
271.250977	156459.718750
269.967773	157133.375000
268.684570	156234.421875
267.401367	156177.343750
266.118164	155230.203125
264.833984	155354.421875
263.549805	154468.140625
262.265625	155799.281250
260.981445	155049.468750
259.696289	154990.687500
258.411133	155136.187500
257.125977	154260.484375
255.839844	154732.765625
254.554688	154670.171875
253.268555	154463.734375
251.982422	153565.468750
250.695312	154468.875000
249.409180	154544.281250
248.122070	154431.250000
246.833984	154423.109375
245.546875	154482.937500
244.258789	153692.421875
242.970703	152952.671875
241.682617	151997.796875
240.394531	152205.468750
239.105469	153039.609375
237.816406	152395.562500
236.527344	152839.578125
235.237305	152298.531250
233.948242	152139.562500
232.658203	152189.937500
231.368164	153400.921875
230.077148	153485.890625
228.786133	155439.906250
227.495117	156299.046875
226.204102	154882.890625
224.913086	153327.890625
223.621094	151190.921875
222.329102	150511.843750
221.037109	151369.125000
219.744141	152094.546875
218.451172	149060.156250
217.158203	149124.453125
215.865234	149130.718750
214.572266	149053.859375
213.278320	148341.265625
211.984375	147710.078125
210.690430	148228.468750
209.395508	147023.937500
208.100586	147229.437500
206.805664	147000.484375
205.510742	146300.625000
204.215820	146581.390625
202.919922	146427.921875
201.624023	145626.312500
200.327148	145399.765625
199.031250	145371.921875
197.734375	144792.687500
196.437500	145104.218750
195.140625	144877.921875
193.842773	143828.921875
192.544922	143416.062500
191.247070	143174.781250
189.949219	143422.750000
188.650391	142473.000000
187.352539	142886.531250
186.052734	142728.281250
184.753906	142229.468750
183.455078	142032.906250
182.155273	142138.421875
180.855469	142147.718750
179.554688	142243.531250
178.254883	142039.390625
176.954102	141431.687500
175.653320	141124.000000
174.351562	141978.843750
173.049805	141511.718750
171.749023	141119.671875
170.446289	140649.031250
169.144531	140959.953125
167.841797	140921.406250
166.539062	141259.015625
165.236328	140370.375000
163.933594	139752.578125
162.629883	139441.906250
161.326172	138494.656250
160.022461	139118.046875
158.718750	138907.328125
157.414062	138246.296875
156.109375	137598.906250
154.804688	138208.562500
153.499023	137306.656250
152.193359	136631.078125
150.887695	136961.000000
149.582031	136687.750000
148.276367	136091.140625
146.969727	136061.171875
145.663086	136050.359375
144.356445	135452.281250
143.048828	136070.781250
141.741211	135849.609375
140.433594	134863.796875
139.125977	134788.187500
137.817383	134171.781250
136.508789	133891.890625
135.200195	132933.921875
133.891602	132618.062500
132.582031	131099.281250
131.273438	129474.156250
129.962891	128019.539062
128.653320	126666.625000
127.342773	124913.523438
126.033203	122777.617188
124.721680	120083.671875
123.411133	118714.226562
122.099609	116536.875000
120.788086	113250.898438
119.476562	109543.062500
