#Wave		#Intensity
2199.140625	8602.898438
2198.041016	8878.355469
2196.943359	8760.783203
2195.845703	8754.762695
2194.746094	8609.946289
2193.646484	8774.575195
2192.548828	8609.332031
2191.449219	8555.581055
2190.349609	8683.753906
2189.250000	8486.780273
2188.150391	8844.500000
2187.050781	8652.110352
2185.949219	8684.743164
2184.849609	8681.013672
2183.748047	8609.138672
2182.648438	8612.236328
2181.546875	8606.249023
2180.445312	8609.345703
2179.343750	8603.360352
2178.244141	8788.026367
2177.140625	8652.665039
2176.039062	8698.859375
2174.937500	8568.094727
2173.835938	8643.772461
2172.732422	8590.163086
2171.630859	8590.988281
2170.527344	8648.487305
2169.423828	8794.363281
2168.322266	8699.971680
2167.218750	8603.346680
2166.115234	8755.952148
2165.011719	8491.734375
2163.906250	8585.424805
2162.802734	8583.982422
2161.699219	8491.984375
2160.593750	8538.092773
2159.490234	8518.552734
2158.384766	8388.143555
2157.279297	8517.954102
2156.173828	8584.383789
2155.068359	8601.035156
2153.962891	8529.490234
2152.857422	8446.666016
2151.751953	8537.927734
2150.646484	8538.752930
2149.539062	8501.162109
2148.433594	8637.555664
2147.326172	8593.183594
2146.218750	8562.377930
2145.111328	8452.543945
2144.003906	8566.273438
2142.896484	8549.031250
2141.789062	8477.625000
2140.681641	8593.548828
2139.574219	8546.978516
2138.464844	8586.148438
2137.357422	8510.271484
2136.248047	8470.502930
2135.140625	8487.117188
2134.031250	8514.998047
2132.921875	8500.042969
2131.812500	8489.598633
2130.703125	8526.477539
2129.593750	8459.708984
2128.484375	8649.752930
2127.373047	8594.247070
2126.263672	8520.744141
2125.152344	8454.020508
2124.042969	8427.837891
2122.931641	8433.172852
2121.820312	8481.260742
2120.708984	8293.092773
2119.597656	8435.666992
2118.486328	8431.999023
2117.375000	8430.581055
2116.263672	8368.456055
2115.150391	8367.048828
2114.039062	8406.098633
2112.925781	8463.112305
2111.814453	8495.391602
2110.701172	8404.103516
2109.587891	8544.194336
2108.474609	8423.732422
2107.361328	8408.843750
2106.248047	8405.183594
2105.132812	8403.769531
2104.019531	8321.563477
2102.906250	8479.475586
2101.791016	8444.396484
2100.675781	8319.605469
2099.562500	8313.719727
2098.447266	8460.314453
2097.332031	8396.116211
2096.216797	8334.179688
2095.101562	8332.777344
2093.986328	8255.186523
2092.869141	8605.546875
2091.753906	8312.888672
2090.636719	8324.927734
2089.521484	8448.927734
2088.404297	8371.381836
2087.287109	8289.383789
2086.169922	8198.460938
2085.052734	8394.006836
2083.935547	8455.241211
2082.818359	8129.445312
2081.701172	8324.903320
2080.582031	8229.577148
2079.464844	8366.818359
2078.345703	8170.916504
2077.228516	8359.530273
2076.109375	8445.278320
2074.990234	8336.604492
2073.871094	8205.625977
2072.751953	8309.225586
2071.632812	8234.126953
2070.513672	8317.590820
2069.392578	8215.725586
2068.273438	8163.001465
2067.152344	8311.155273
2066.033203	8327.606445
2064.912109	8355.206055
2063.791016	8219.958984
2062.669922	8281.022461
2061.548828	8246.177734
2060.427734	8262.624023
2059.306641	8254.544922
2058.185547	8353.448242
2057.062500	8075.718750
2055.941406	8212.495117
2054.818359	8342.541992
2053.695312	8287.681641
2052.574219	8357.544922
2051.451172	8320.511719
2050.328125	8272.359375
2049.205078	8206.417969
2048.082031	8169.427734
2046.957031	8150.250488
2045.833984	8211.166016
2044.708984	8347.686523
2043.585938	8206.173828
2042.460938	8384.894531
2041.335938	8198.959961
2040.212891	8257.591797
2039.087891	8133.967285
2037.962891	8221.476562
2036.835938	8062.353027
2035.710938	8092.090820
2034.585938	8281.722656
2033.458984	8138.212402
2032.333984	8194.563477
2031.207031	8106.609863
2030.080078	8176.263184
2028.955078	8263.644531
2027.828125	8240.064453
2026.701172	8147.724609
2025.574219	8199.579102
2024.445312	8169.368164
2023.318359	8170.206543
2022.191406	8108.975098
2021.062500	8245.023438
2019.933594	8230.335938
2018.806641	8189.065430
2017.677734	8107.933105
2016.548828	8073.340820
2015.419922	8264.642578
2014.291016	7977.621094
2013.162109	7996.198242
2012.031250	7999.275391
2010.902344	7898.338379
2009.773438	8065.167480
2008.642578	8004.074219
2007.511719	8038.113281
2006.382812	8118.583496
2005.251953	7900.518066
2004.121094	8095.944824
2002.990234	7948.689941
2001.857422	8097.630859
2000.726562	8045.440918
1999.595703	7995.477539
1998.462891	8155.379395
1997.332031	7862.472168
1996.199219	7993.635254
1995.066406	8124.753906
1993.933594	8017.424316
1992.802734	8044.762207
1991.667969	7899.967773
1990.535156	7975.854492
1989.402344	7976.713379
1988.269531	8028.299316
1987.134766	7868.168457
1986.001953	7917.550293
1984.867188	8026.435547
1983.732422	7870.792969
1982.599609	7977.444824
1981.464844	8011.350586
1980.330078	7750.046387
1979.193359	7867.676758
1978.058594	7809.089355
1976.923828	7887.036133
1975.787109	7982.568359
1974.652344	7990.023438
1973.515625	7898.442871
1972.380859	7855.300781
1971.244141	7794.572754
1970.107422	7887.838867
1968.970703	7728.159668
1967.833984	7849.990234
1966.695312	7875.044922
1965.558594	7948.450195
1964.421875	7826.229004
1963.283203	7827.103027
1962.146484	7856.538086
1961.007812	7833.243164
1959.869141	7834.114746
1958.730469	7828.397949
1957.591797	7892.939941
1956.453125	7731.358398
1955.314453	7683.959961
1954.175781	7733.131836
1953.035156	7661.614258
1951.896484	7642.769043
1950.755859	7724.821777
1949.615234	7892.370605
1948.476562	7851.569336
1947.335938	7602.523438
1946.195312	7620.963379
1945.054688	7746.778320
1943.914062	7596.474121
1942.771484	7566.709473
1941.630859	7648.661621
1940.488281	7561.958496
1939.347656	7560.679199
1938.205078	7653.536133
1937.062500	7696.018066
1935.919922	7690.338379
1934.777344	7693.413086
1933.634766	7738.053711
1932.492188	7509.256836
1931.349609	7626.083984
1930.207031	7583.246582
1929.062500	7560.100586
1927.919922	7432.038574
1926.775391	7581.581543
1925.630859	7453.559082
1924.486328	7587.753418
1923.341797	7571.177734
1922.197266	7622.312988
1921.052734	7527.124023
1919.908203	7504.016602
1918.761719	7583.514160
1917.617188	7455.641113
1916.470703	7474.018066
1915.326172	7623.298340
1914.179688	7617.644043
1913.033203	7459.315430
1911.886719	7495.124023
1910.740234	7480.772461
1909.593750	7516.564941
1908.447266	7456.441895
1907.298828	7444.282715
1906.152344	7480.062012
1905.003906	7585.541016
1903.857422	7333.770996
1902.708984	7426.171875
1901.560547	7366.124023
1900.412109	7343.105469
1899.263672	7350.567383
1898.115234	7303.619629
1896.964844	7596.130859
1895.816406	7338.128906
1894.667969	7399.965332
1893.517578	7559.646973
1892.367188	7240.896973
1891.218750	7263.583984
1890.068359	7353.648438
1888.917969	7335.015137
1887.767578	7381.577148
1886.617188	7280.385742
1885.464844	7298.701660
1884.314453	7453.838379
1883.164062	7346.170898
1882.011719	7397.032227
1880.859375	7382.753418
1879.708984	7301.197266
1878.556641	7395.439941
1877.404297	7420.221680
1876.251953	7349.545898
1875.099609	7350.468262
1873.945312	7275.490723
1872.792969	7239.565430
1871.640625	7257.848145
1870.486328	7304.300781
1869.332031	7389.744629
1868.179688	7381.990723
1867.025391	7367.740234
1865.871094	7362.158203
1864.716797	7334.921875
1863.562500	7190.771484
1862.406250	7183.056641
1861.251953	7322.530762
1860.095703	7122.187012
1858.941406	7296.244141
1857.785156	7394.522461
1856.630859	7293.767578
1855.474609	7417.964844
1854.318359	7267.506836
1853.162109	7346.264648
1852.003906	7383.925781
1850.847656	7376.188965
1849.691406	7217.195801
1848.533203	7116.588867
1847.376953	7402.674316
1846.218750	7323.666992
1845.060547	7350.495117
1843.904297	7144.142090
1842.746094	7445.137695
1841.585938	7383.441895
1840.427734	7257.029785
1839.269531	7286.002930
1838.111328	7248.093750
1836.951172	7214.510742
1835.792969	7370.705078
1834.632812	7371.609375
1833.472656	7215.146484
1832.312500	7263.493652
1831.152344	7178.215820
1829.992188	7429.085449
1828.832031	7257.638184
1827.671875	7355.483398
1826.509766	7166.878418
1825.349609	7243.173828
1824.187500	7356.040527
1823.027344	7380.619629
1821.865234	7280.371094
1820.703125	7311.409180
1819.541016	7288.653809
1818.378906	7201.376953
1817.216797	7185.099121
1816.052734	7226.882324
1814.890625	7208.455078
1813.728516	7299.657715
1812.564453	7240.390625
1811.400391	7226.267090
1810.238281	7212.148438
1809.074219	7178.702148
1807.910156	7269.831055
1806.746094	7302.951660
1805.580078	7222.273438
1804.416016	7188.847168
1803.251953	7284.203613
1802.085938	7188.548340
1800.921875	7210.925781
1799.755859	7196.829102
1798.589844	7332.868652
1797.423828	7241.557617
1796.257812	7240.325684
1795.091797	7256.243652
1793.925781	7218.573730
1792.757812	7129.485840
1791.591797	7325.388184
1790.423828	7109.923340
1789.257812	7074.444336
1788.089844	7109.645508
1786.921875	7202.644043
1785.753906	7274.203613
1784.585938	7129.561035
1783.417969	7104.808105
1782.250000	7187.044922
1781.082031	7087.415527
1779.912109	7062.681152
1778.744141	7102.111328
1777.574219	7203.535645
1776.404297	7142.450684
1775.234375	7181.846680
1774.066406	7037.438965
1772.894531	7147.351074
1771.724609	7047.861328
1770.554688	7040.253906
1769.384766	7002.749512
1768.212891	7033.586426
1767.042969	7055.872559
1765.871094	7201.955078
1764.699219	7034.262207
1763.527344	7015.994141
1762.355469	6993.464844
1761.183594	6896.284668
1760.011719	6860.986816
1758.839844	7036.804688
1757.667969	7029.209961
1756.494141	6883.061523
1755.322266	6950.089844
1754.148438	6961.691406
1752.974609	7086.208008
1751.800781	7078.610352
1750.626953	7122.130859
1749.453125	6873.899902
1748.279297	6925.956055
1747.105469	7050.371582
1745.929688	6976.805664
1744.755859	6890.496582
1743.580078	6946.768555
1742.404297	6988.130859
1741.230469	7065.635742
1740.054688	6968.736816
1738.878906	7037.713379
1737.703125	7006.752441
1736.525391	7050.192871
1735.349609	7006.489258
1734.173828	6820.441895
1732.996094	6912.751953
1731.818359	6849.977051
1730.642578	7082.412109
1729.464844	6996.272461
1728.287109	6893.178711
1727.109375	6925.964355
1725.931641	6992.694336
1724.751953	7029.695312
1723.574219	6911.814941
1722.396484	6948.816406
1721.216797	6748.279297
1720.037109	6736.526367
1718.859375	6898.621094
1717.679688	6821.135742
1716.500000	6832.687988
1715.320312	6975.611816
1714.140625	6932.050293
1712.958984	6884.266602
1711.779297	6777.198242
1710.597656	6828.979980
1709.417969	6821.463379
1708.236328	6962.124512
1707.054688	6819.135742
1705.875000	6815.856445
1704.693359	6768.147461
1703.509766	6927.758789
1702.328125	6854.667480
1701.146484	6851.382812
1699.964844	6856.556152
1698.781250	6813.107910
1697.597656	6826.740234
1696.416016	6831.914551
1695.232422	6889.907227
1694.048828	6854.931641
1692.865234	6710.138672
1691.681641	6804.021484
1690.496094	6771.188965
1689.312500	6615.928711
1688.128906	6901.848633
1686.943359	6679.088867
1685.757812	6770.785645
1684.574219	6851.902832
1683.388672	6774.801270
1682.203125	6746.229004
1681.017578	6677.604980
1679.832031	6716.519043
1678.644531	6746.988770
1677.458984	6781.662109
1676.273438	6791.039062
1675.085938	6791.985840
1673.898438	6714.997559
1672.710938	6760.182129
1671.525391	6676.908203
1670.337891	6726.293457
1669.148438	6695.675781
1667.960938	6669.277344
1666.773438	6735.471191
1665.585938	6732.216309
1664.396484	6775.238770
1663.207031	6841.379883
1662.019531	6739.279297
1660.830078	6727.615723
1659.640625	6648.690918
1658.451172	6653.859863
1657.261719	6589.683105
1656.070312	6775.541016
1654.880859	6648.347656
1653.691406	6710.217773
1652.500000	6591.478027
1651.308594	6567.256836
1650.119141	6708.875977
1648.927734	6590.196777
1647.736328	6507.230957
1646.544922	6569.060547
1645.351562	6710.581543
1644.160156	6495.503906
1642.968750	6685.219727
1641.775391	6556.181641
1640.583984	6565.541504
1639.390625	6583.281738
1638.197266	6634.544922
1637.003906	6631.314941
1635.810547	6504.489746
1634.617188	6620.668457
1633.423828	6489.699707
1632.230469	6568.152832
1631.035156	6606.803711
1629.841797	6536.603027
1628.646484	6514.557617
1627.451172	6592.951660
1626.255859	6598.099121
1625.060547	6601.153320
1623.865234	6426.448730
1622.669922	6613.530273
1621.474609	6374.076172
1620.277344	6467.043945
1619.082031	6499.374023
1617.884766	6535.872070
1616.689453	6561.912109
1615.492188	6393.687988
1614.294922	6455.245605
1613.097656	6518.869629
1611.900391	6532.367188
1610.703125	6454.018066
1609.503906	6576.043945
1608.306641	6501.886719
1607.107422	6323.441406
1605.910156	6395.365234
1604.710938	6427.638672
1603.511719	6514.115234
1602.312500	6431.691406
1601.113281	6472.279297
1599.914062	6496.180176
1598.714844	6430.471191
1597.513672	6462.703613
1596.314453	6342.863281
1595.113281	6491.729980
1593.912109	6413.571777
1592.712891	6283.390625
1591.511719	6282.313965
1590.310547	6320.781738
1589.109375	6388.368164
1587.906250	6299.890625
1586.705078	6471.466797
1585.503906	6407.962891
1584.300781	6338.242188
1583.097656	6389.133789
1581.896484	6250.840332
1580.693359	6393.178711
1579.490234	6329.741699
1578.287109	6245.548828
1577.083984	6387.814453
1575.878906	6368.026367
1574.675781	6294.252930
1573.470703	6299.402832
1572.267578	6273.411621
1571.062500	6301.394043
1569.857422	6225.605957
1568.652344	6307.532227
1567.447266	6264.960938
1566.242188	6324.036621
1565.037109	6250.369629
1563.832031	6313.573730
1562.625000	6235.787598
1561.419922	6284.462891
1560.212891	6248.154785
1559.005859	6396.267090
1557.798828	6335.092285
1556.591797	6371.288574
1555.384766	6214.875488
1554.177734	6275.926758
1552.970703	6324.535156
1551.761719	6253.074707
1550.554688	6390.659180
1549.345703	6244.721191
1548.138672	6363.640137
1546.929688	6172.250977
1545.720703	6175.327637
1544.511719	6126.709961
1543.302734	6202.151855
1542.091797	6180.416992
1540.882812	6131.822266
1539.673828	6325.003906
1538.462891	6264.005371
1537.251953	6223.683105
1536.042969	6307.290039
1534.832031	6169.923828
1533.621094	6152.348145
1532.410156	6120.329102
1531.197266	6141.980469
1529.986328	6114.100098
1528.775391	6185.259766
1527.562500	6258.457520
1526.351562	6042.891113
1525.138672	6254.246094
1523.925781	6263.480469
1522.712891	6144.907227
1521.500000	6090.265625
1520.287109	6085.098145
1519.074219	6257.117676
1517.859375	6169.524902
1516.646484	6028.413086
1515.431641	6157.109375
1514.216797	6083.990234
1513.003906	6117.939941
1511.789062	6038.678223
1510.574219	6058.218750
1509.359375	6192.970215
1508.142578	6068.479492
1506.927734	6122.968750
1505.712891	6097.239746
1504.496094	5923.483398
1503.279297	6138.313477
1502.064453	5905.004395
1500.847656	5973.858887
1499.630859	5968.723145
1498.414062	5959.479492
1497.195312	6061.151855
1495.978516	6060.109375
1494.761719	6044.694824
1493.542969	6049.814453
1492.326172	5960.515625
1491.107422	6027.212402
1489.888672	6069.263672
1488.669922	6125.661133
1487.451172	6034.358887
1486.232422	6018.965332
1485.013672	5923.611816
1483.792969	6080.446777
1482.574219	6106.046875
1481.353516	5959.493164
1480.132812	5876.508301
1478.914062	6008.658691
1477.693359	5913.403809
1476.472656	5975.872070
1475.251953	5913.416504
1474.029297	5881.690430
1472.808594	5909.334961
1471.587891	5965.620605
1470.365234	5886.839355
1469.142578	5969.705078
1467.921875	5944.131836
1466.699219	5953.334473
1465.476562	5968.667969
1464.253906	5930.840820
1463.029297	5901.203125
1461.806641	5906.318359
1460.583984	6085.117188
1459.359375	5922.671875
1458.134766	5956.377441
1456.912109	5914.505859
1455.687500	5942.074707
1454.462891	5824.680664
1453.238281	5917.574707
1452.013672	5875.737793
1450.787109	5927.780273
1449.562500	5849.231934
1448.335938	5870.662598
1447.111328	5800.309082
1445.884766	5984.871582
1444.658203	5902.289062
1443.431641	5874.772949
1442.205078	5883.951172
1440.978516	5972.597656
1439.751953	5873.774414
1438.525391	5882.947754
1437.296875	5826.943359
1436.070312	5992.918457
1434.841797	5924.698730
1433.613281	5878.893555
1432.384766	5853.457520
1431.156250	5797.505371
1429.927734	5926.719238
1428.699219	5828.054688
1427.468750	5953.150391
1426.240234	5970.426270
1425.009766	5928.733398
1423.781250	5917.547363
1422.550781	5918.559570
1421.320312	5887.057617
1420.089844	5802.739746
1418.859375	5941.907227
1417.628906	5975.411133
1416.396484	5813.953613
1415.166016	5930.712891
1413.935547	5923.600098
1412.703125	5930.697266
1411.470703	5895.175781
1410.238281	5879.956055
1409.005859	5809.968750
1407.773438	5825.192871
1406.541016	5739.015625
1405.308594	5808.990234
1404.074219	5925.567383
1402.841797	5800.905762
1401.607422	5970.132812
1400.373047	5843.479980
1399.140625	5919.453125
1397.906250	5898.176758
1396.671875	5797.928223
1395.435547	5796.927734
1394.201172	5872.855469
1392.966797	5892.082520
1391.730469	5775.713379
1390.496094	5952.773438
1389.259766	5808.110840
1388.023438	5687.770508
1386.787109	5844.530273
1385.550781	5851.609375
1384.314453	5915.291016
1383.078125	5784.908203
1381.839844	5850.600098
1380.603516	5839.486816
1379.365234	5763.729980
1378.128906	5768.794434
1376.890625	5824.345215
1375.652344	5825.358398
1374.414062	5800.126465
1373.175781	5841.513184
1371.935547	5763.814453
1370.697266	5881.869141
1369.458984	5836.469238
1368.218750	5770.914062
1366.978516	5717.481445
1365.740234	5728.592285
1364.500000	5778.003906
1363.259766	5851.586426
1362.019531	5761.899902
1360.777344	5809.264648
1359.537109	5755.879395
1358.294922	5805.242676
1357.054688	5874.728027
1355.812500	5670.337891
1354.570312	5747.875000
1353.330078	5769.023926
1352.087891	5707.649414
1350.843750	5760.993164
1349.601562	5729.819336
1348.359375	5708.713379
1347.115234	5589.066895
1345.873047	5676.577148
1344.628906	5643.428223
1343.384766	5688.685547
1342.142578	5725.887695
1340.898438	5632.463379
1339.654297	5663.634766
1338.408203	5600.384277
1337.164062	5671.718262
1335.919922	5572.342773
1334.673828	5627.594727
1333.427734	5668.775879
1332.183594	5597.549805
1330.937500	5610.628418
1329.691406	5709.973633
1328.445312	5502.371094
1327.197266	5631.784668
1325.951172	5396.192871
1324.705078	5565.678223
1323.457031	5586.765625
1322.208984	5517.654785
1320.962891	5522.711914
1319.714844	5545.798828
1318.466797	5691.071777
1317.218750	5539.873535
1315.970703	5687.099609
1314.720703	5461.874023
1313.472656	5536.997559
1312.222656	5425.958984
1310.974609	5507.064941
1309.724609	5474.099609
1308.474609	5435.144043
1307.224609	5526.206055
1305.974609	5581.241699
1304.724609	5542.287109
1303.472656	5457.368164
1302.222656	5420.446777
1300.972656	5387.534668
1299.720703	5330.657715
1298.468750	5493.541992
1297.216797	5412.698242
1295.964844	5501.623535
1294.712891	5370.891113
1293.460938	5409.885742
1292.208984	5430.903809
1290.955078	5421.980957
1289.703125	5293.346680
1288.449219	5436.061523
1287.195312	5431.130371
1285.943359	5300.566895
1284.689453	5429.248535
1283.433594	5529.976074
1282.179688	5477.195801
1280.925781	5420.448242
1279.671875	5407.553711
1278.416016	5396.655762
1277.160156	5375.802734
1275.906250	5372.879395
1274.650391	5439.645020
1273.394531	5323.239258
1272.138672	5415.865234
1270.880859	5534.329102
1269.625000	5376.183105
1268.369141	5345.410156
1267.111328	5424.043945
1265.855469	5411.171387
1264.597656	5374.443359
1263.339844	5383.451172
1262.082031	5493.825195
1260.824219	5276.257812
1259.566406	5388.598633
1258.306641	5451.235352
1257.048828	5350.977051
1255.789062	5419.555664
1254.531250	5422.586426
1253.271484	5413.705078
1252.011719	5275.809082
1250.751953	5266.955566
1249.492188	5383.108887
1248.232422	5318.691895
1246.970703	5377.273926
1245.710938	5467.566406
1244.449219	5337.734375
1243.189453	5334.825684
1241.927734	5472.648926
1240.666016	5352.791992
1239.404297	5472.730469
1238.142578	5291.500977
1236.880859	5377.735840
1235.617188	5410.468750
1234.355469	5296.666016
1233.091797	5363.057129
1231.830078	5397.754883
1230.566406	5313.698242
1229.302734	5289.031250
1228.039062	5258.437500
1226.775391	5435.544434
1225.511719	5321.874023
1224.246094	5382.246582
1222.982422	5377.357910
1221.716797	5323.055176
1220.453125	5389.324219
1219.187500	5283.663086
1217.921875	5403.256836
1216.656250	5410.219238
1215.390625	5405.329590
1214.125000	5281.967285
1212.857422	5363.966797
1211.591797	5443.964355
1210.324219	5322.632324
1209.058594	5300.002441
1207.791016	5253.705566
1206.523438	5335.638184
1205.255859	5202.575684
1203.988281	5233.220703
1202.718750	5301.312988
1201.451172	5369.381348
1200.183594	5206.842773
1198.914062	5391.160156
1197.644531	5411.894043
1196.375000	5308.525391
1195.105469	5425.768066
1193.835938	5302.741699
1192.566406	5343.163086
1191.296875	5326.486816
1190.027344	5242.902344
1188.755859	5395.472168
1187.484375	5343.382324
1186.214844	5328.683594
1184.943359	5504.758789
1183.671875	5295.368652
1182.400391	5308.209961
1181.128906	5218.831543
1179.855469	5357.461426
1178.583984	5256.315430
1177.310547	5245.578125
1176.039062	5354.666016
1174.765625	5271.248047
1173.492188	5236.949707
1172.218750	5330.275391
1170.945312	5201.757324
1169.671875	5314.682129
1168.398438	5282.361328
1167.123047	5295.175293
1165.849609	5223.637695
1164.574219	5185.465332
1163.298828	5272.802246
1162.023438	5291.489746
1160.748047	5208.240234
1159.472656	5248.490723
1158.197266	5196.629395
1156.921875	5254.500000
1155.644531	5269.255371
1154.369141	5262.462402
1153.091797	5077.480469
1151.814453	5156.866211
1150.537109	5099.201660
1149.259766	5115.927734
1147.982422	5246.141113
1146.705078	5188.490723
1145.427734	5224.752930
1144.148438	5061.514648
1142.871094	5234.665527
1141.591797	5261.124512
1140.312500	5109.692871
1139.033203	5138.118652
1137.753906	5315.042969
1136.474609	5136.328613
1135.195312	5197.941406
1133.914062	5183.364258
1132.634766	5262.521973
1131.353516	5181.558105
1130.072266	5219.695312
1128.791016	5164.138672
1127.511719	5050.061035
1126.228516	5094.053711
1124.947266	5202.402344
1123.666016	5187.843262
1122.384766	5066.040527
1121.101562	5051.509766
1119.818359	5109.107910
1118.537109	5106.268066
1117.253906	5142.401367
1115.970703	5036.297852
1114.687500	4982.825195
1113.402344	5240.986816
1112.119141	5064.819336
1110.835938	5112.609375
1109.550781	5117.557129
1108.265625	5027.137695
1106.982422	5121.609863
1105.697266	5009.819336
1104.412109	4973.931641
1103.126953	5046.969238
1101.839844	4935.249512
1100.554688	5016.045410
1099.267578	4927.696289
1097.982422	4909.344727
1096.695312	5013.419922
1095.408203	4909.574219
1094.121094	4883.464844
1092.833984	4975.836426
1091.546875	5019.630371
1090.259766	4976.041016
1088.970703	4992.643066
1087.683594	4830.684082
1086.394531	5041.352539
1085.107422	4858.099609
1083.818359	4989.157715
1082.529297	4926.223633
1081.240234	4936.998535
1079.949219	4887.666992
1078.660156	4960.474121
1077.371094	4878.207520
1076.080078	5007.186035
1074.789062	4859.066895
1073.500000	4862.092773
1072.208984	4944.523438
1070.917969	4904.931641
1069.626953	4820.823730
1068.333984	4816.110352
1067.042969	4879.136719
1065.750000	4975.037598
1064.458984	4947.082031
1063.166016	4783.729492
1061.873047	4842.849121
1060.580078	4853.604980
1059.287109	4750.288574
1057.994141	4853.841797
1056.701172	4845.262695
1055.406250	4780.648438
1054.113281	4911.189941
1052.818359	4796.362305
1051.525391	4737.583984
1050.230469	4754.134766
1048.935547	4762.957031
1047.640625	4773.706055
1046.343750	4824.981445
1045.048828	4687.132324
1043.753906	4861.880859
1042.457031	4808.948242
1041.160156	4792.677734
1039.865234	4716.635742
1038.568359	4762.082031
1037.271484	4815.223145
1035.974609	4750.780273
1034.675781	4798.123047
1033.378906	4722.145508
1032.080078	4777.181641
1030.783203	4641.529785
1029.484375	4696.560547
1028.185547	4770.824707
1026.886719	4692.992188
1025.587891	4590.167480
1024.289062	4681.729004
1022.990234	4754.019043
1021.689453	4755.110352
1020.390625	4702.350586
1019.089844	4722.679688
1017.789062	4731.465820
1016.488281	4788.305176
1015.187500	4670.230469
1013.886719	4711.687500
1012.585938	4672.438477
1011.285156	4619.755859
1009.982422	4816.765137
1008.681641	4739.112793
1007.378906	4636.528809
1006.076172	4722.096680
1004.773438	4675.208984
1003.470703	4672.471191
1002.167969	4765.661621
1000.865234	4609.452148
999.560547	4719.881348
998.257812	4701.796875
996.953125	4735.482910
995.648438	4769.156738
994.343750	4626.498535
993.039062	4708.083984
991.734375	4713.006836
990.429688	4710.265625
989.125000	4839.672852
987.818359	4647.339844
986.513672	4669.500000
985.207031	4729.935059
983.900391	4629.586426
982.593750	4779.942383
981.287109	4608.832031
979.980469	4629.065430
978.673828	4699.016602
977.365234	4571.990234
976.058594	4628.543457
974.750000	4679.342285
973.443359	4689.989258
972.134766	4603.179688
970.826172	4718.912598
969.517578	4698.983398
968.207031	4791.740723
966.898438	4676.331055
965.589844	4660.237793
964.279297	4628.879395
962.968750	4589.897949
961.658203	4659.694336
960.349609	4515.791504
959.039062	4741.988770
957.726562	4603.842773
956.416016	4528.669922
955.105469	4619.385742
953.792969	4593.795898
952.482422	4573.931641
951.169922	4573.128906
949.857422	4616.144531
948.544922	4529.618652
947.232422	4498.352051
945.919922	4446.151367
944.605469	4473.927734
943.292969	4495.983887
941.978516	4527.548340
940.666016	4547.684082
939.351562	4487.909668
938.037109	4386.308594
936.722656	4442.592773
935.408203	4434.206543
934.091797	4416.317871
932.777344	4548.598145
931.460938	4403.364746
930.146484	4497.597656
928.830078	4555.701172
927.513672	4461.827637
926.197266	4502.824707
924.880859	4371.017578
923.564453	4273.428223
922.246094	4447.305176
920.929688	4389.589844
919.611328	4443.845215
918.294922	4494.286621
916.976562	4447.974121
915.658203	4397.884766
914.339844	4427.450195
913.021484	4494.920410
911.701172	4452.430664
910.382812	4517.977539
909.062500	4286.019043
907.744141	4326.943848
906.423828	4377.324707
905.103516	4268.608887
903.783203	4330.342773
902.462891	4238.711426
901.142578	4283.393555
899.820312	4339.414062
898.500000	4368.925293
897.177734	4371.940430
895.855469	4274.707031
894.535156	4273.955566
893.212891	4248.623535
891.890625	4198.724121
890.566406	4320.844727
889.244141	4274.729492
887.921875	4389.234863
886.597656	4356.347656
885.273438	4308.361328
883.951172	4281.165039
882.626953	4306.845703
881.302734	4234.351074
879.976562	4265.693359
878.652344	4459.318359
877.328125	4228.342773
876.001953	4206.847656
874.677734	4362.657227
873.351562	4358.118164
872.025391	4251.764160
870.699219	4266.096680
869.373047	4297.387695
868.046875	4351.281738
866.718750	4299.643555
865.392578	4410.032227
864.064453	4330.148926
862.738281	4176.850586
861.410156	4396.406250
860.082031	4324.097168
858.753906	4255.578125
857.425781	4252.946777
856.095703	4329.339355
854.767578	4179.964355
853.437500	4250.700195
852.109375	4351.499023
850.779297	4185.276855
849.449219	4318.008789
848.119141	4326.645508
846.789062	4350.312988
845.457031	4321.363770
844.126953	4185.348633
842.796875	4139.534668
841.464844	4313.446289
840.132812	4196.279297
838.800781	4347.593262
837.468750	4314.920410
836.136719	4280.381836
834.804688	4232.722656
833.472656	4284.500977
832.138672	4268.741211
830.806641	4200.481445
829.472656	4239.113281
828.138672	4182.129395
826.804688	4173.895020
825.470703	4180.654785
824.136719	4178.043945
822.802734	4226.011719
821.466797	4232.757812
820.132812	4202.050293
818.796875	4206.926270
817.460938	4219.287598
816.125000	4203.570801
814.789062	4113.009277
813.453125	4187.120605
812.117188	4167.675781
810.779297	4286.637695
809.443359	4156.855957
808.105469	4126.208984
806.767578	4136.696777
805.431641	4117.277344
804.093750	4170.740723
802.753906	4190.555664
801.416016	4133.777832
800.078125	4084.489990
798.738281	4106.176758
797.400391	4150.258789
796.060547	4078.594238
794.720703	4206.649414
793.380859	4037.968994
792.041016	4009.271484
790.701172	3960.065430
789.361328	4097.375488
788.019531	4063.088135
786.679688	4038.134521
785.337891	4061.653320
783.996094	3971.479980
782.654297	4019.225586
781.312500	4089.310059
779.970703	3986.140381
778.628906	4009.646973
777.285156	3979.146240
775.943359	3943.071045
774.599609	3990.770020
773.255859	4032.868896
771.912109	3970.753174
770.568359	3960.749512
769.224609	3891.227783
767.880859	3940.752930
766.535156	4010.713379
765.191406	3957.950928
763.845703	3983.273682
762.500000	3876.640381
761.156250	3922.407227
759.810547	3929.145020
758.462891	3911.733643
757.117188	3877.614502
755.771484	3843.507080
754.423828	3924.510986
753.078125	3868.133789
751.730469	3871.161377
750.382812	3831.512451
749.035156	3825.269531
747.687500	3863.543945
746.339844	3831.334717
744.990234	3841.781982
743.642578	3841.102539
742.292969	3827.448730
740.945312	3760.057861
739.595703	3751.981445
738.246094	3869.877930
736.896484	3808.071533
735.546875	3816.657227
734.195312	3747.475586
732.845703	3809.753174
731.494141	3729.491699
730.144531	3838.013428
728.792969	3767.026367
727.441406	3784.858643
726.089844	3747.197510
724.738281	3672.565186
723.384766	3716.288818
722.033203	3748.905273
720.679688	3705.732178
719.328125	3790.080322
717.974609	3841.141846
716.621094	3779.501953
715.267578	3773.291992
713.914062	3783.703613
712.558594	3627.945801
711.205078	3798.977295
709.849609	3645.117432
708.496094	3709.057373
707.140625	3752.679932
705.785156	3731.724121
704.429688	3646.224365
703.074219	3693.522217
701.718750	3628.339600
700.361328	3729.080566
699.005859	3737.635010
697.648438	3694.590820
696.291016	3721.571777
694.935547	3708.018066
693.578125	3661.318115
692.218750	3570.441650
690.861328	3658.179688
689.503906	3712.753174
688.144531	3645.840576
686.787109	3661.755127
685.427734	3589.355713
684.068359	3706.442627
682.708984	3746.245605
681.349609	3583.769531
679.990234	3529.819092
678.628906	3644.994873
677.269531	3653.537598
675.908203	3612.465332
674.548828	3758.796387
673.187500	3611.184326
671.826172	3698.695312
670.464844	3556.654541
669.101562	3669.845947
667.740234	3634.320068
666.378906	3554.762207
665.015625	3502.755615
663.652344	3658.069824
662.289062	3558.373291
660.925781	3654.937988
659.562500	3630.453125
658.199219	3574.812012
656.835938	3621.833252
655.470703	3590.036621
654.107422	3593.063965
652.742188	3621.737305
651.376953	3536.840332
650.011719	3618.620361
648.646484	3583.189697
647.281250	3617.335693
645.916016	3554.462891
644.548828	3579.451660
643.181641	3630.046631
641.816406	3686.111572
640.449219	3557.426270
639.082031	3586.053467
637.714844	3526.909180
636.347656	3513.486572
634.978516	3523.828857
633.611328	3492.137451
632.242188	3500.652344
630.875000	3507.337402
629.505859	3546.895508
628.136719	3491.482666
626.767578	3538.332275
625.398438	3594.292236
624.027344	3498.747559
622.658203	3443.382324
621.287109	3466.488525
619.917969	3535.189941
618.546875	3474.375488
617.175781	3491.992920
615.804688	3365.573486
614.431641	3481.637451
613.060547	3408.117676
611.689453	3505.910645
610.316406	3357.715576
608.943359	3506.485840
607.572266	3443.940674
606.199219	3368.671387
604.826172	3419.048584
603.451172	3389.316406
602.078125	3450.591309
600.705078	3320.785645
599.330078	3376.592773
597.955078	3426.923096
596.582031	3380.847656
595.207031	3414.794189
593.830078	3426.912842
592.455078	3409.944092
591.080078	3307.566162
589.705078	3376.024414
588.328125	3442.641602
586.951172	3313.066650
585.574219	3301.580811
584.197266	3261.047119
582.820312	3314.928955
581.443359	3330.674805
580.066406	3324.637695
578.687500	3405.695557
577.310547	3267.216797
575.931641	3301.097168
574.552734	3260.613281
573.173828	3341.624268
571.794922	3371.847168
570.416016	3213.559570
569.037109	3299.971680
567.656250	3239.593018
566.277344	3211.843262
564.896484	3240.250488
563.515625	3322.974121
562.134766	3329.624512
560.753906	3240.329834
559.373047	3241.562500
557.992188	3195.745117
556.609375	3220.505615
555.226562	3227.167725
553.845703	3222.975586
552.462891	3169.960449
551.080078	3191.091309
549.697266	3132.677490
548.314453	3137.541260
546.929688	3232.754150
545.546875	3127.389648
544.162109	3244.246582
542.777344	3167.814209
541.394531	3125.717773
540.009766	3116.133545
538.625000	3102.942383
537.238281	3109.608398
535.853516	3137.925049
534.466797	3054.375977
533.082031	3178.293457
531.695312	3170.512695
530.308594	3211.419922
528.921875	3117.099854
527.535156	3147.186768
526.148438	3110.581543
524.759766	3185.705322
523.373047	3192.343262
521.984375	3031.464600
520.597656	3155.186279
519.208984	3095.204102
517.820312	3092.851562
516.431641	3094.099854
515.041016	3055.755615
513.652344	3134.379639
512.261719	2993.500000
510.873047	3027.140137
509.482422	3057.171631
508.091797	3139.334717
506.701172	2994.958984
505.310547	3057.332275
503.919922	3119.683350
502.527344	3090.378906
501.136719	3037.731201
499.744141	3024.616211
498.351562	2998.935303
496.958984	3100.740479
495.566406	3015.815918
494.173828	3076.300781
492.781250	3018.327881
491.386719	3008.817871
489.994141	2970.609619
488.599609	2986.220947
487.205078	2948.030029
485.810547	2992.325684
484.416016	3011.509277
483.021484	3018.140381
481.626953	2910.085693
480.230469	3024.228271
478.835938	2987.862305
477.439453	2903.153076
476.042969	3015.444824
474.646484	2943.292969
473.250000	3000.047119
471.853516	2956.558594
470.457031	2941.715088
469.058594	2971.603027
467.662109	3012.212646
466.263672	2895.427734
464.865234	2919.943359
463.466797	2910.482422
462.068359	2963.585449
460.669922	2886.208984
459.269531	2871.398438
457.871094	2969.141846
456.470703	2831.075928
455.072266	2902.003418
453.671875	2853.275146
452.271484	2831.342285
450.871094	2800.492676
449.468750	2948.111084
448.068359	2885.135010
446.666016	2829.316895
445.265625	2860.915771
443.863281	2901.419678
442.460938	2792.138916
441.058594	2857.597656
439.656250	2873.127197
438.253906	2861.920898
436.849609	2852.500244
435.447266	2887.617432
434.042969	2828.325439
432.638672	2833.161377
431.234375	2791.704590
429.830078	2874.869629
428.425781	2851.217773
427.021484	2772.410645
425.615234	2791.484863
424.210938	2830.119385
422.804688	2792.263916
421.398438	2827.327637
419.992188	2700.592285
418.585938	2717.884033
417.179688	2793.818604
415.773438	2768.441162
414.365234	2711.093994
412.957031	2778.107178
411.550781	2798.921143
410.142578	2690.105225
408.734375	2753.534912
407.326172	2729.966553
405.916016	2640.742676
404.507812	2716.567627
403.099609	2751.562012
401.689453	2742.200195
400.279297	2621.115967
398.869141	2730.578613
397.458984	2673.360107
396.048828	2683.515625
394.638672	2745.059814
393.226562	2703.815430
391.816406	2717.502930
390.404297	2692.218994
388.992188	2736.008057
387.580078	2693.024170
386.167969	2628.812256
384.755859	2663.739502
383.343750	2675.648926
381.929688	2671.630615
380.517578	2697.686035
379.103516	2695.433350
377.689453	2562.324463
376.275391	2678.554199
374.861328	2596.759277
373.447266	2606.897705
372.033203	2523.377686
370.617188	2590.061523
369.201172	2635.523926
367.787109	2548.511230
366.371094	2512.737793
364.955078	2568.782471
363.539062	2596.563965
362.121094	2592.568359
360.705078	2623.864502
359.287109	2505.190918
357.871094	2571.769287
356.453125	2518.400146
355.035156	2604.348145
353.617188	2482.236816
352.199219	2474.740479
350.781250	2484.870117
349.361328	2542.569824
347.943359	2587.917236
346.523438	2564.554443
345.103516	2528.872803
343.683594	2533.700928
342.263672	2441.703857
340.843750	2501.108643
339.421875	2497.139893
338.001953	2424.552734
336.580078	2466.336914
335.158203	2467.652588
333.738281	2534.033203
332.316406	2503.688232
330.892578	2427.648926
329.470703	2479.939941
328.048828	2430.291016
326.625000	2477.291504
325.203125	2439.957031
323.779297	2423.711670
322.355469	2535.659668
320.931641	2382.459717
319.507812	2378.520508
318.082031	2411.438721
316.658203	2310.985352
315.232422	2371.974365
313.806641	2375.056152
312.382812	2392.166748
310.957031	2396.997070
309.531250	2350.983887
308.103516	2408.404785
306.677734	2332.612793
305.250000	2311.166748
303.824219	2308.999023
302.396484	2263.042480
300.968750	2287.153076
299.541016	2360.281494
298.113281	2316.090820
296.685547	2341.928955
295.255859	2285.507324
293.828125	2307.842041
292.398438	2282.935303
290.968750	2266.782959
289.539062	2275.118652
288.109375	2363.878906
286.679688	2288.284424
285.250000	2212.717041
283.818359	2245.520996
282.386719	2171.735352
280.957031	2276.155762
279.525391	2275.745850
278.093750	2214.218018
276.662109	2220.802979
275.228516	2351.322998
273.796875	2270.616455
272.363281	2230.072998
270.931641	2184.310303
269.498047	2227.525391
268.064453	2173.059082
266.630859	2207.541992
265.197266	2214.117676
263.761719	2187.572510
262.328125	2148.837402
260.892578	2247.770264
259.458984	2245.623047
258.023438	2215.607178
256.587891	2304.025146
255.152344	2331.469238
253.714844	2233.559082
252.279297	2273.189697
250.843750	2192.728027
249.406250	2223.651611
247.968750	2115.393555
246.531250	2215.892578
245.093750	2085.067627
243.656250	2089.907715
242.218750	2026.949219
240.779297	2092.630127
239.341797	2095.728271
237.902344	2105.774902
236.462891	2096.709473
235.023438	2105.015381
233.583984	2012.601196
232.144531	2053.906494
230.703125	2067.422852
229.263672	2169.447754
227.822266	2061.471191
226.380859	2050.689697
224.939453	2072.869629
223.498047	2122.790527
222.056641	2014.899780
220.615234	2052.677002
219.171875	2036.706177
217.730469	2008.609741
216.287109	2068.893066
214.843750	2052.927734
213.400391	1986.736694
211.957031	2019.282227
210.513672	2053.547363
209.070312	1990.854248
207.625000	2023.381226
206.179688	1979.751953
204.736328	2012.269043
203.291016	1984.226807
201.845703	1919.872559
200.398438	1962.758423
198.953125	1953.758911
197.507812	1917.103760
196.060547	2017.002563
194.613281	1961.340454
193.167969	1943.708618
191.720703	1948.539795
190.271484	1975.821533
188.824219	1892.577881
187.376953	1950.936523
185.927734	1990.286133
184.480469	1886.374268
183.031250	1889.484375
181.582031	1833.935059
180.132812	1869.827148
178.683594	1905.706177
177.232422	1862.253906
175.783203	1865.365112
174.332031	1878.817383
172.882812	1892.264648
171.431641	1793.707886
169.980469	1865.739014
168.529297	1808.561157
167.076172	1839.232300
165.625000	1840.621460
164.171875	1786.921875
162.720703	1843.397949
161.267578	1769.066650
159.814453	1785.952271
158.361328	1787.349365
156.908203	1759.506836
155.453125	1790.141968
154.000000	1803.572632
152.544922	1712.138428
151.089844	1735.890381
149.636719	1756.196899
148.181641	1721.517456
146.724609	1667.954956
145.269531	1691.697510
143.814453	1724.017090
142.357422	1715.120728
140.900391	1694.211914
139.445312	1707.634888
137.988281	1659.280273
136.531250	1689.860596
135.072266	1641.526611
133.615234	1593.210083
132.156250	1637.502686
130.699219	1630.348755
129.240234	1681.474731
127.781250	1597.197266
126.322266	1595.194458
124.863281	1560.643311
123.404297	1563.786133
121.943359	1561.790405
120.484375	1528.975952
119.023438	1585.190552
117.562500	1547.249023
116.101562	1552.102417
114.640625	1575.774170
113.179688	1560.092896
111.716797	1499.949097
110.255859	1472.317017
108.792969	1405.371948
107.330078	1369.219971
105.867188	1293.772339
104.404297	1249.109741
102.941406	1170.294189
101.478516	1120.545654
100.013672	1111.803223
