#Wave		#Intensity
3199.185547	12152.320312
3198.252930	11924.547852
3197.319336	12013.699219
3196.386719	11926.020508
3195.453125	11857.118164
3194.519531	12120.301758
3193.585938	11901.450195
3192.652344	11939.666016
3191.717773	12052.815430
3190.784180	12021.414062
3189.849609	12062.266602
3188.915039	11934.561523
3187.980469	11988.789062
3187.045898	11815.670898
3186.110352	12003.599609
3185.175781	11865.291992
3184.240234	12111.959961
3183.304688	11922.896484
3182.369141	12014.482422
3181.433594	12015.196289
3180.498047	12055.980469
3179.561523	12142.157227
3178.625977	12073.415039
3177.689453	11879.201172
3176.752930	12114.863281
3175.816406	11952.736328
3174.879883	11969.468750
3173.942383	11935.498047
3173.005859	12064.279297
3172.068359	12193.019531
3171.130859	11948.331055
3170.193359	11917.050781
3169.255859	12053.748047
3168.318359	12081.106445
3167.379883	12081.801758
3166.442383	12111.810547
3165.503906	12104.506836
3164.565430	12046.588867
3163.626953	11994.017578
3162.687500	12183.806641
3161.749023	12195.133789
3160.809570	12193.145508
3159.871094	11895.694336
3158.931641	12135.941406
3157.992188	12213.791016
3157.051758	11967.031250
3156.112305	12342.811523
3155.172852	12340.798828
3154.232422	12088.819336
3153.291992	12219.787109
3152.351562	12262.986328
3151.411133	12306.170898
3150.470703	12301.505859
3149.529297	12055.050781
3148.587891	12074.337891
3147.647461	12202.521484
3146.706055	12346.597656
3145.764648	12047.187500
3144.822266	12023.983398
3143.880859	12260.922852
3142.938477	12062.524414
3141.997070	12214.464844
3141.054688	12185.940430
3140.112305	12128.245117
3139.169922	12311.926758
3138.226562	12132.244141
3137.284180	12270.790039
3136.340820	12287.344727
3135.397461	12301.243164
3134.454102	12312.487305
3133.510742	12276.032227
3132.567383	12117.722656
3131.623047	12248.186523
3130.679688	12275.320312
3129.735352	12223.005859
3128.791016	12353.387695
3127.846680	12136.956055
3126.902344	12275.249023
3125.957031	12196.504883
3125.012695	12324.159180
3124.067383	12340.665039
3123.122070	12254.012695
3122.176758	12397.460938
3121.231445	12239.436523
3120.285156	12427.781250
3119.339844	12327.954102
3118.393555	12101.304688
3117.447266	12302.791016
3116.500977	12290.214844
3115.554688	12454.622070
3114.608398	12497.487305
3113.661133	12500.727539
3112.714844	12583.173828
3111.767578	12338.260742
3110.820312	12386.393555
3109.873047	12384.371094
3108.925781	12392.903320
3107.977539	12411.984375
3107.030273	12373.031250
3106.082031	12526.604492
3105.133789	12500.828125
3104.185547	12393.333984
3103.237305	12586.366211
3102.288086	12589.582031
3101.339844	12468.949219
3100.390625	12316.741211
3099.441406	12485.950195
3098.492188	12520.784180
3097.542969	12394.973633
3096.593750	12587.782227
3095.643555	12512.017578
3094.694336	12586.302734
3093.744141	12368.457031
3092.793945	12503.256836
3091.843750	12430.184570
3090.893555	12493.912109
3089.942383	12420.864258
3088.992188	12752.774414
3088.041016	12585.063477
3087.089844	12438.435547
3086.138672	12326.021484
3085.187500	12715.538086
3084.235352	12484.885742
3083.284180	12419.801758
3082.332031	12399.387695
3081.379883	12470.889648
3080.427734	12734.035156
3079.475586	12640.074219
3078.523438	12606.512695
3077.570312	12530.972656
3076.617188	12568.283203
3075.665039	12676.413086
3074.711914	12464.501953
3073.757812	12525.406250
3072.804688	12449.939453
3071.851562	12400.713867
3070.897461	12435.385742
3069.943359	12504.116211
3068.989258	12651.437500
3068.035156	12612.689453
3067.081055	12550.377930
3066.126953	12805.002930
3065.171875	12679.830078
3064.216797	12876.747070
3063.261719	12581.442383
3062.306641	12623.881836
3061.351562	12514.520508
3060.396484	12460.143555
3059.440430	12620.307617
3058.484375	12343.593750
3057.529297	12718.178711
3056.573242	12457.227539
3055.616211	12389.830078
3054.660156	12552.486328
3053.704102	12602.706055
3052.747070	12590.193359
3051.791016	12676.966797
3050.833984	12465.910156
3049.876953	12685.880859
3048.917969	12566.291992
3047.960938	12747.007812
3047.003906	12658.774414
3046.044922	12852.466797
3045.087891	12620.707031
3044.128906	12730.843750
3043.171875	12749.632812
3042.212891	12554.521484
3041.253906	12500.307617
3040.294922	12539.985352
3039.335938	12558.791016
3038.376953	12780.917969
3037.417969	12653.723633
3036.458984	12716.801758
3035.500000	12756.409180
3034.539062	12665.750977
3033.580078	12476.145508
3032.621094	12474.104492
3031.660156	12698.591797
3030.699219	12600.191406
3029.740234	12525.248047
3028.779297	12478.956055
3027.818359	12601.813477
3026.857422	12532.109375
3025.896484	12787.579102
3024.935547	12621.636719
3023.972656	12588.367188
3023.011719	12867.101562
3022.050781	12628.439453
3021.087891	12686.152344
3020.126953	12756.838867
3019.164062	12609.250000
3018.201172	12812.414062
3017.238281	12651.875977
3016.275391	12732.908203
3015.314453	12689.280273
3014.349609	12897.488281
3013.386719	12708.488281
3012.423828	12716.789062
3011.460938	12647.241211
3010.496094	12909.801758
3009.533203	12793.552734
3008.570312	12775.897461
3007.605469	12846.414062
3006.640625	12745.788086
3005.675781	12694.447266
3004.712891	12733.838867
3003.748047	12775.809570
3002.783203	12646.757812
3001.818359	12548.834961
3000.851562	12818.748047
2999.886719	12777.803711
2998.921875	12806.783203
2997.955078	12833.164062
2996.990234	12730.112305
2996.023438	13004.949219
2995.058594	12803.572266
2994.091797	12801.475586
2993.125000	12693.321289
2992.158203	12649.861328
2991.191406	12683.992188
2990.224609	12798.262695
2989.257812	13018.484375
2988.291016	12744.962891
2987.322266	12771.301758
2986.355469	12906.152344
2985.388672	12705.117188
2984.419922	12909.673828
2983.451172	12884.316406
2982.484375	12864.130859
2981.515625	12810.389648
2980.546875	12658.577148
2979.578125	13020.403320
2978.609375	12569.275391
2977.640625	12729.756836
2976.671875	13052.699219
2975.701172	12805.540039
2974.732422	12901.434570
2973.763672	12788.453125
2972.792969	12892.050781
2971.822266	12694.050781
2970.853516	12797.629883
2969.882812	12823.875977
2968.912109	12996.956055
2967.941406	13018.008789
2966.970703	13054.505859
2966.000000	12964.818359
2965.029297	12779.903320
2964.058594	12896.216797
2963.085938	12979.034180
2962.115234	13141.595703
2961.142578	12743.225586
2960.171875	13039.536133
2959.199219	12916.515625
2958.226562	12878.396484
2957.253906	13074.263672
2956.283203	12894.741211
2955.310547	12830.940430
2954.335938	12893.083984
2953.363281	12896.109375
2952.390625	12983.911133
2951.417969	12966.371094
2950.443359	13015.608398
2949.470703	13000.635742
2948.496094	12918.916992
2947.523438	13101.617188
2946.548828	13050.706055
2945.574219	12979.281250
2944.599609	12925.839844
2943.625000	12908.329102
2942.650391	12875.434570
2941.675781	12719.458008
2940.701172	12958.387695
2939.724609	13110.076172
2938.750000	13015.652344
2937.775391	12916.134766
2936.798828	12903.767578
2935.822266	12819.670898
2934.847656	12920.026367
2933.871094	12861.564453
2932.894531	12867.136719
2931.917969	12806.141602
2930.941406	12804.041016
2929.964844	12679.090820
2928.988281	12891.961914
2928.009766	13012.656250
2927.033203	12928.662109
2926.056641	13118.368164
2925.078125	12878.389648
2924.099609	12822.583008
2923.123047	12981.534180
2922.144531	12872.052734
2921.166016	13069.276367
2920.187500	12801.394531
2919.208984	12801.848633
2918.230469	12832.954102
2917.251953	12695.491211
2916.273438	12905.347656
2915.292969	12928.760742
2914.314453	12776.032227
2913.333984	12814.771484
2912.355469	12695.285156
2911.375000	12938.135742
2910.394531	12864.583984
2909.414062	12775.753906
2908.433594	13125.576172
2907.453125	12656.823242
2906.472656	12935.168945
2905.492188	12871.872070
2904.511719	12788.208008
2903.531250	12658.707031
2902.548828	12852.795898
2901.568359	12746.250977
2900.585938	12866.404297
2899.603516	12581.644531
2898.623047	12867.271484
2897.640625	12888.069336
2896.658203	12656.891602
2895.675781	12812.585938
2894.693359	12823.203125
2893.710938	12869.431641
2892.726562	12729.971680
2891.744141	12755.854492
2890.761719	12730.875977
2889.777344	12703.363281
2888.792969	12927.496094
2887.810547	12681.402344
2886.826172	12725.056641
2885.841797	12811.884766
2884.857422	13035.850586
2883.873047	12881.328125
2882.888672	12701.462891
2881.904297	12701.916016
2880.919922	13116.133789
2879.933594	12646.982422
2878.949219	12761.634766
2877.964844	12795.059570
2876.978516	12940.090820
2875.992188	12950.646484
2875.007812	12963.734375
2874.021484	12796.795898
2873.035156	12733.850586
2872.048828	13046.060547
2871.062500	12575.076172
2870.076172	12747.845703
2869.087891	12748.285156
2868.101562	12774.053711
2867.115234	12749.161133
2866.126953	12790.113281
2865.140625	12846.242188
2864.152344	12669.466797
2863.164062	12806.586914
2862.175781	12890.520508
2861.187500	12966.834961
2860.199219	12853.397461
2859.210938	12939.809570
2858.222656	12932.625000
2857.234375	12882.458984
2856.246094	12875.285156
2855.255859	12885.807617
2854.267578	12686.567383
2853.277344	12861.356445
2852.289062	13020.930664
2851.298828	12874.810547
2850.308594	13069.686523
2849.318359	12883.203125
2848.328125	12878.560547
2847.337891	12979.939453
2846.347656	12914.708008
2845.357422	13011.000000
2844.365234	12996.245117
2843.375000	12943.655273
2842.382812	13007.104492
2841.392578	12952.007812
2840.400391	12965.006836
2839.408203	12920.017578
2838.417969	12925.455078
2837.425781	13077.058594
2836.433594	12896.005859
2835.441406	12906.481445
2834.447266	12848.943359
2833.455078	12992.902344
2832.462891	12950.475586
2831.470703	13086.817383
2830.476562	13074.595703
2829.482422	13019.591797
2828.490234	12811.103516
2827.496094	13088.272461
2826.501953	12977.949219
2825.507812	12935.571289
2824.513672	13104.447266
2823.519531	13059.546875
2822.525391	13029.745117
2821.531250	13035.141602
2820.535156	12952.577148
2819.541016	12774.557617
2818.546875	13284.961914
2817.550781	12951.208984
2816.554688	12936.520508
2815.560547	13027.299805
2814.564453	13281.240234
2813.568359	13140.993164
2812.572266	13118.751953
2811.576172	13121.611328
2810.580078	13039.164062
2809.582031	13021.966797
2808.585938	13125.166016
2807.589844	13203.253906
2806.591797	13035.596680
2805.593750	13126.207031
2804.597656	13179.189453
2803.599609	13169.500977
2802.601562	13006.969727
2801.603516	13197.734375
2800.605469	13162.998047
2799.607422	13298.575195
2798.609375	13010.926758
2797.611328	13161.504883
2796.611328	13329.555664
2795.613281	13347.383789
2794.613281	13122.473633
2793.615234	13307.960938
2792.615234	13308.270508
2791.615234	13356.102539
2790.617188	13146.341797
2789.617188	13354.204102
2788.617188	12952.019531
2787.617188	13209.833984
2786.615234	13000.234375
2785.615234	13425.366211
2784.615234	13328.221680
2783.613281	13321.030273
2782.613281	13266.389648
2781.611328	13374.074219
2780.609375	13344.408203
2779.609375	13481.997070
2778.607422	13210.230469
2777.605469	13445.116211
2776.603516	13492.799805
2775.601562	13358.365234
2774.599609	13273.858398
2773.595703	13488.625977
2772.593750	13204.658203
2771.589844	13474.209961
2770.587891	13521.839844
2769.583984	13100.940430
2768.582031	13248.282227
2767.578125	13310.872070
2766.574219	13550.291992
2765.570312	13254.185547
2764.566406	13364.053711
2763.562500	13262.265625
2762.556641	13528.916016
2761.552734	13377.357422
2760.548828	13293.035156
2759.542969	13430.171875
2758.539062	13343.380859
2757.533203	13602.333984
2756.527344	13488.187500
2755.523438	13279.596680
2754.517578	13255.034180
2753.511719	13163.370117
2752.505859	13360.009766
2751.498047	13357.807617
2750.492188	13286.044922
2749.486328	13336.015625
2748.480469	13420.739258
2747.472656	13560.061523
2746.464844	13317.006836
2745.458984	13446.371094
2744.451172	13491.308594
2743.443359	13322.827148
2742.435547	13382.656250
2741.427734	13402.774414
2740.419922	13241.831055
2739.412109	13433.071289
2738.404297	13309.366211
2737.394531	13322.044922
2736.386719	13585.054688
2735.378906	13144.179688
2734.369141	13464.119141
2733.359375	13469.330078
2732.349609	13541.416992
2731.341797	13259.334961
2730.332031	13559.234375
2729.322266	13462.920898
2728.312500	13401.291992
2727.300781	13431.254883
2726.291016	13386.972656
2725.281250	13298.170898
2724.269531	13422.134766
2723.259766	13422.393555
2722.248047	13380.612305
2721.236328	13254.782227
2720.226562	13418.221680
2719.214844	13188.617188
2718.203125	13418.736328
2717.191406	13367.105469
2716.179688	13448.893555
2715.166016	13392.333984
2714.154297	13439.515625
2713.142578	13348.406250
2712.128906	13494.330078
2711.117188	13445.203125
2710.103516	13381.285156
2709.089844	13418.557617
2708.076172	13347.261719
2707.064453	13710.135742
2706.050781	13451.374023
2705.035156	13335.720703
2704.021484	13530.760742
2703.007812	13311.597656
2701.994141	13427.705078
2700.978516	13482.166992
2699.964844	13191.666016
2698.949219	13586.108398
2697.935547	13305.538086
2696.919922	13359.982422
2695.904297	13478.426758
2694.888672	13244.786133
2693.873047	13432.130859
2692.857422	13565.269531
2691.841797	13248.068359
2690.824219	13400.875000
2689.808594	13334.706055
2688.792969	13637.471680
2687.775391	13465.546875
2686.757812	13212.544922
2685.742188	13451.265625
2684.724609	13471.164062
2683.707031	13429.621094
2682.689453	13577.278320
2681.671875	13579.948242
2680.654297	13297.701172
2679.636719	13347.075195
2678.617188	13153.352539
2677.599609	13384.399414
2676.582031	13372.370117
2675.562500	13473.234375
2674.542969	13318.876953
2673.525391	13311.769531
2672.505859	13285.040039
2671.486328	13204.364258
2670.466797	13175.208984
2669.447266	13298.068359
2668.427734	13389.020508
2667.406250	13465.236328
2666.386719	13622.292969
2665.367188	13372.583008
2664.345703	13333.626953
2663.324219	13439.191406
2662.304688	13441.868164
2661.283203	13625.729492
2660.261719	13315.020508
2659.240234	13467.022461
2658.218750	13413.403320
2657.197266	13511.506836
2656.175781	13433.433594
2655.152344	13497.255859
2654.130859	13169.753906
2653.109375	13453.668945
2652.085938	13441.665039
2651.062500	13498.108398
2650.041016	13542.313477
2649.017578	13476.540039
2647.994141	13462.094727
2646.970703	13242.458984
2645.947266	13399.025391
2644.923828	13440.765625
2643.900391	13475.166016
2642.875000	13209.289062
2641.851562	13414.571289
2640.826172	13200.039062
2639.802734	13405.253906
2638.777344	13303.013672
2637.751953	13373.988281
2636.726562	13327.877930
2635.701172	13359.810547
2634.675781	13435.615234
2633.650391	13440.705078
2632.625000	13431.169922
2631.599609	13226.697266
2630.572266	13263.490234
2629.546875	13443.992188
2628.519531	13400.363281
2627.494141	13291.000000
2626.466797	13203.584961
2625.439453	13542.206055
2624.412109	13367.156250
2623.384766	13408.748047
2622.357422	13214.311523
2621.330078	13596.495117
2620.302734	13479.925781
2619.275391	13343.939453
2618.246094	13504.641602
2617.218750	13402.731445
2616.189453	13415.096680
2615.160156	13101.796875
2614.132812	13454.394531
2613.103516	13150.908203
2612.074219	13321.197266
2611.044922	13430.712891
2610.015625	13438.202148
2608.984375	13428.693359
2607.955078	13217.706055
2606.925781	13419.393555
2605.894531	13159.942383
2604.865234	13276.651367
2603.833984	13204.101562
2602.802734	13361.997070
2601.773438	13384.035156
2600.742188	13282.407227
2599.710938	13464.453125
2598.679688	13476.766602
2597.646484	13304.890625
2596.615234	13276.033203
2595.583984	13174.504883
2594.550781	13443.617188
2593.519531	13172.562500
2592.486328	13320.511719
2591.455078	13059.250977
2590.421875	13136.969727
2589.388672	13340.515625
2588.355469	13164.075195
2587.322266	13311.901367
2586.289062	13084.722656
2585.255859	13225.256836
2584.220703	13196.463867
2583.187500	13160.427734
2582.152344	13281.537109
2581.119141	13260.000000
2580.083984	13223.969727
2579.048828	13047.807617
2578.015625	13132.616211
2576.980469	13417.879883
2575.945312	13123.433594
2574.910156	13350.651367
2573.873047	13290.496094
2572.837891	12957.594727
2571.802734	13076.120117
2570.765625	13240.454102
2569.730469	13255.147461
2568.693359	13349.440430
2567.656250	13289.343750
2566.621094	13168.978516
2565.583984	13256.004883
2564.546875	13113.989258
2563.509766	13126.276367
2562.472656	13078.312500
2561.433594	13244.806641
2560.396484	13249.837891
2559.359375	13394.569336
2558.320312	13243.035156
2557.281250	13322.707031
2556.244141	13062.899414
2555.205078	13234.041016
2554.166016	13157.240234
2553.126953	13114.151367
2552.087891	13193.776367
2551.048828	13184.371094
2550.009766	13100.412109
2548.970703	13002.052734
2547.929688	13175.407227
2546.890625	13036.201172
2545.849609	13108.546875
2544.808594	13152.030273
2543.769531	13082.574219
2542.728516	13250.964844
2541.687500	13313.617188
2540.646484	13047.246094
2539.605469	13263.580078
2538.564453	13160.549805
2537.521484	13107.960938
2536.480469	13040.988281
2535.439453	13276.374023
2534.396484	13120.628906
2533.353516	13252.778320
2532.312500	12917.216797
2531.269531	13174.045898
2530.226562	13188.641602
2529.183594	13303.911133
2528.140625	13153.107422
2527.097656	13177.283203
2526.054688	12981.027344
2525.009766	13041.156250
2523.966797	13177.908203
2522.921875	13137.405273
2521.878906	13252.545898
2520.833984	13219.224609
2519.789062	13051.876953
2518.744141	13186.118164
2517.699219	13310.743164
2516.654297	12973.607422
2515.609375	13143.672852
2514.564453	13093.659180
2513.519531	13208.651367
2512.472656	13275.789062
2511.427734	13275.974609
2510.380859	13068.234375
2509.335938	13130.582031
2508.289062	13216.800781
2507.242188	13322.099609
2506.195312	13009.400391
2505.148438	13224.543945
2504.101562	13262.935547
2503.054688	13306.088867
2502.007812	13213.181641
2500.958984	13168.032227
2499.912109	13292.301758
2498.863281	13170.814453
2497.814453	13175.781250
2496.767578	13199.825195
2495.718750	13161.866211
2494.669922	13166.832031
2493.621094	13109.821289
2492.572266	13100.493164
2491.523438	13379.488281
2490.472656	13229.554688
2489.423828	13179.716797
2488.375000	13318.041992
2487.324219	13170.574219
2486.273438	13358.851562
2485.224609	13344.729492
2484.173828	13525.774414
2483.123047	13383.126953
2482.072266	13478.452148
2481.021484	13371.541992
2479.970703	13466.836914
2478.919922	13371.853516
2477.867188	13281.657227
2476.816406	13331.749023
2475.763672	13272.487305
2474.712891	13391.481445
2473.660156	13211.048828
2472.607422	13455.923828
2471.554688	13216.157227
2470.501953	13358.829102
2469.449219	13285.372070
2468.396484	13382.875977
2467.343750	13411.508789
2466.291016	13169.573242
2465.236328	13207.722656
2464.183594	13345.505859
2463.128906	13317.192383
2462.074219	13319.721680
2461.021484	13357.819336
2459.966797	13464.661133
2458.912109	13445.827148
2457.857422	13381.966797
2456.802734	13161.721680
2455.746094	13254.307617
2454.691406	13375.290039
2453.636719	13316.218750
2452.580078	13254.797852
2451.525391	13240.753906
2450.468750	13248.020508
2449.412109	13340.497070
2448.355469	13229.413086
2447.298828	13265.071289
2446.242188	13397.715820
2445.185547	13613.107422
2444.128906	13334.131836
2443.072266	13372.111328
2442.013672	13275.315430
2440.957031	13091.088867
2439.898438	13424.523438
2438.839844	13415.199219
2437.783203	13240.490234
2436.724609	13299.706055
2435.666016	13415.587891
2434.607422	13330.701172
2433.548828	13392.232422
2432.490234	13557.614258
2431.429688	13220.190430
2430.371094	13335.986328
2429.310547	13409.271484
2428.251953	13392.883789
2427.191406	13145.343750
2426.130859	13287.014648
2425.072266	13273.012695
2424.011719	13310.881836
2422.951172	13266.235352
2421.890625	13358.297852
2420.828125	13179.343750
2419.767578	13200.708984
2418.707031	13212.643555
2417.644531	13196.312500
2416.583984	13088.146484
2415.521484	13029.459961
2414.458984	13345.085938
2413.396484	13244.009766
2412.333984	13470.070312
2411.271484	13333.712891
2410.208984	13522.041992
2409.146484	13348.086914
2408.083984	13145.969727
2407.021484	13030.916992
2405.957031	13235.625977
2404.892578	13261.626953
2403.830078	13379.273438
2402.765625	13139.720703
2401.701172	12926.089844
2400.636719	13233.998047
2399.572266	13170.730469
2398.507812	13142.705078
2397.443359	13264.947266
2396.378906	13189.967773
2395.312500	13347.364258
2394.248047	13192.610352
2393.181641	13209.181641
2392.117188	13225.746094
2391.050781	13221.196289
2389.984375	13014.973633
2388.917969	13099.556641
2387.851562	13109.093750
2386.785156	13214.726562
2385.718750	13254.706055
2384.652344	13179.860352
2383.583984	13285.426758
2382.517578	13341.768555
2381.449219	13145.165039
2380.380859	13100.826172
2379.314453	13061.183594
2378.246094	13080.072266
2377.177734	13110.655273
2376.109375	13120.168945
2375.041016	13125.000000
2373.972656	13012.869141
2372.902344	13232.883789
2371.833984	12882.254883
2370.765625	13160.666992
2369.695312	13111.719727
2368.625000	13025.392578
2367.556641	12873.661133
2366.486328	13098.149414
2365.416016	13292.193359
2364.345703	13273.626953
2363.275391	13091.594727
2362.203125	13077.736328
2361.132812	12853.776367
2360.062500	13024.356445
2358.990234	13094.528320
2357.919922	12917.342773
2356.847656	13108.822266
2355.775391	13106.634766
2354.703125	13148.758789
2353.630859	13137.237305
2352.558594	12962.521484
2351.486328	12890.427734
2350.414062	13084.047852
2349.341797	13014.287109
2348.267578	13070.361328
2347.195312	13049.543945
2346.121094	13126.552734
2345.048828	13075.459961
2343.974609	13082.589844
2342.900391	13201.456055
2341.826172	12871.074219
2340.751953	12887.541992
2339.677734	13038.954102
2338.603516	12992.577148
2337.527344	13099.726562
2336.453125	12864.983398
2335.378906	12858.184570
2334.302734	12916.482422
2333.226562	13018.922852
2332.150391	13021.396484
2331.076172	12951.836914
2330.000000	12928.764648
2328.923828	12924.282227
2327.845703	12994.119141
2326.769531	13033.746094
2325.693359	13115.149414
2324.615234	12915.648438
2323.539062	13115.409180
2322.460938	13013.436523
2321.384766	13129.588867
2320.306641	12913.979492
2319.228516	12844.560547
2318.150391	12877.199219
2317.072266	13021.117188
2315.994141	12942.441406
2314.916016	12789.622070
2313.835938	12882.498047
2312.757812	12952.173828
2311.677734	12973.174805
2310.599609	12794.971680
2309.519531	13073.052734
2308.439453	12918.046875
2307.359375	12786.242188
2306.279297	12835.028320
2305.199219	12842.140625
2304.119141	12932.550781
2303.039062	12682.839844
2301.957031	12773.246094
2300.876953	12898.313477
2299.794922	12886.907227
2298.714844	13270.855469
2297.632812	12743.901367
2296.550781	12737.148438
2295.468750	12885.222656
2294.386719	12712.094727
2293.304688	13049.548828
2292.222656	12737.870117
2291.140625	13003.617188
2290.056641	12881.379883
2288.974609	12752.256836
2287.890625	12752.432617
2286.808594	12851.839844
2285.724609	12803.542969
2284.640625	12713.736328
2283.556641	12623.959961
2282.472656	13053.107422
2281.388672	12848.012695
2280.304688	12933.469727
2279.220703	12657.004883
2278.134766	12724.027344
2277.050781	12549.078125
2275.964844	12973.198242
2274.878906	12717.641602
2273.794922	12706.301758
2272.708984	12681.147461
2271.623047	12764.212891
2270.537109	12750.566406
2269.451172	12628.750977
2268.363281	12737.094727
2267.277344	12822.393555
2266.191406	12666.119141
2265.103516	12707.700195
2264.017578	12546.897461
2262.929688	12450.527344
2261.841797	12657.641602
2260.753906	12699.193359
2259.666016	12828.060547
2258.578125	12598.437500
2257.490234	12683.627930
2256.402344	12465.589844
2255.312500	12670.194336
2254.224609	12468.304688
2253.134766	12558.048828
2252.046875	12565.127930
2250.957031	12517.123047
2249.867188	12230.490234
2248.777344	12473.928711
2247.687500	12517.717773
2246.597656	12607.361328
2245.507812	12508.938477
2244.417969	12600.845703
2243.326172	12339.700195
2242.236328	12603.500977
2241.144531	12411.188477
2240.054688	12399.944336
2238.962891	12590.295898
2237.871094	12333.949219
2236.779297	12483.025391
2235.687500	12616.024414
2234.595703	12455.950195
2233.503906	12154.018555
2232.410156	12408.294922
2231.318359	12554.944336
2230.224609	12376.683594
2229.132812	12488.977539
2228.039062	12349.666016
2226.945312	12455.066406
2225.851562	12441.547852
2224.757812	12357.173828
2223.664062	12320.820312
2222.570312	12337.036133
2221.476562	12293.843750
2220.382812	12250.666016
2219.287109	12342.252930
2218.193359	12271.677734
2217.097656	12267.337891
2216.001953	12390.833008
2214.906250	12242.683594
2213.812500	12329.628906
2212.716797	12149.595703
2211.619141	12476.055664
2210.523438	12170.610352
2209.427734	12353.288086
2208.332031	12282.813477
2207.234375	12173.608398
2206.138672	12192.080078
2205.041016	12413.371094
2203.943359	12208.498047
2202.845703	12176.833984
2201.748047	12297.792969
2200.650391	12225.130859
2199.552734	12138.830078
2198.455078	12111.750000
2197.357422	12173.454102
2196.257812	12228.308594
2195.160156	12078.349609
2194.060547	12153.677734
2192.960938	12153.913086
2191.863281	12201.910156
2190.763672	12127.095703
2189.664062	11975.003906
2188.564453	12011.638672
2187.462891	12230.087891
2186.363281	12087.143555
2185.263672	12148.732422
2184.162109	11939.970703
2183.062500	11917.525391
2181.960938	12133.533203
2180.859375	11831.785156
2179.759766	11968.279297
2178.658203	12143.313477
2177.556641	12018.727539
2176.453125	12034.862305
2175.351562	12066.871094
2174.250000	12076.186523
2173.148438	12205.696289
2172.044922	12017.711914
2170.941406	11827.524414
2169.839844	11873.139648
2168.736328	11952.734375
2167.632812	12041.366211
2166.529297	12193.404297
2165.425781	11987.488281
2164.322266	12096.451172
2163.218750	12128.386719
2162.113281	12094.653320
2161.009766	11934.163086
2159.904297	11884.629883
2158.800781	12145.132812
2157.695312	12018.652344
2156.589844	11921.623047
2155.484375	12053.065430
2154.378906	11944.754883
2153.273438	11854.567383
2152.167969	12083.162109
2151.062500	11936.474609
2149.955078	11986.447266
2148.849609	12158.415039
2147.742188	11984.678711
2146.634766	11926.196289
2145.529297	11910.641602
2144.421875	11904.124023
2143.314453	12157.233398
2142.207031	11879.808594
2141.097656	11936.489258
2139.990234	12031.511719
2138.882812	11745.221680
2137.773438	11950.773438
2136.666016	11838.252930
2135.556641	12086.563477
2134.449219	11886.128906
2133.339844	11996.840820
2132.230469	11961.016602
2131.121094	12058.156250
2130.011719	12024.586914
2128.900391	11774.769531
2127.791016	11984.506836
2126.681641	12011.766602
2125.570312	11998.488281
2124.460938	11827.633789
2123.349609	11989.952148
2122.238281	12122.959961
2121.126953	11970.168945
2120.015625	11862.422852
2118.904297	11837.934570
2117.792969	12036.094727
2116.681641	11901.408203
2115.568359	11912.894531
2114.457031	11701.848633
2113.343750	11929.113281
2112.232422	12041.704102
2111.119141	11965.540039
2110.005859	11763.610352
2108.892578	11748.156250
2107.779297	11896.626953
2106.666016	11791.350586
2105.552734	11928.540039
2104.439453	12058.950195
2103.324219	11904.330078
2102.210938	11900.083008
2101.095703	11916.026367
2099.980469	11918.505859
2098.867188	11894.075195
2097.751953	11836.021484
2096.636719	11721.943359
2095.521484	11926.172852
2094.404297	12217.732422
2093.289062	11671.212891
2092.173828	11848.464844
2091.056641	11689.681641
2089.941406	12106.492188
2088.824219	11835.764648
2087.707031	11896.455078
2086.589844	11878.784180
2085.472656	12100.578125
2084.355469	12026.938477
2083.238281	11883.969727
2082.121094	11781.311523
2081.003906	11772.618164
2079.884766	11763.927734
2078.767578	11770.888672
2077.648438	11507.375000
2076.529297	11648.472656
2075.412109	11827.509766
2074.292969	11754.023438
2073.173828	11736.407227
2072.052734	12098.478516
2070.933594	11741.385742
2069.814453	11710.382812
2068.695312	11860.206055
2067.574219	11782.322266
2066.453125	11871.830078
2065.333984	11700.260742
2064.212891	11932.523438
2063.091797	11946.125000
2061.970703	11732.257812
2060.849609	11917.573242
2059.728516	11777.348633
2058.607422	11554.701172
2057.484375	11831.321289
2056.363281	11809.273438
2055.240234	11785.004883
2054.119141	11734.015625
2052.996094	11801.075195
2051.873047	11705.566406
2050.750000	11567.789062
2049.626953	11601.454102
2048.503906	11550.536133
2047.380859	11722.151367
2046.255859	11871.459961
2045.132812	11702.627930
2044.007812	11647.277344
2042.884766	11769.838867
2041.759766	11496.612305
2040.634766	11514.679688
2039.509766	11810.557617
2038.384766	11677.458984
2037.259766	11717.703125
2036.134766	11640.198242
2035.009766	11607.140625
2033.882812	11543.003906
2032.757812	11627.648438
2031.630859	11667.865234
2030.503906	11641.482422
2029.378906	11439.792969
2028.251953	11608.709961
2027.125000	11659.993164
2025.998047	11562.650391
2024.869141	11700.412109
2023.742188	11643.005859
2022.615234	11614.438477
2021.486328	11845.215820
2020.359375	11608.302734
2019.230469	11573.106445
2018.101562	11475.889648
2016.972656	11376.491211
2015.843750	11618.184570
2014.714844	11711.438477
2013.585938	11667.397461
2012.457031	11477.275391
2011.328125	11725.427734
2010.197266	11477.827148
2009.068359	11528.987305
2007.937500	11447.407227
2006.806641	11622.409180
2005.675781	11459.020508
2004.544922	11483.617188
2003.414062	11503.784180
2002.283203	11517.312500
2001.152344	11541.885742
2000.021484	11502.375977
1998.888672	11392.188477
1997.757812	11628.804688
1996.625000	11576.048828
1995.492188	11514.478516
1994.361328	11446.306641
1993.228516	11292.076172
1992.095703	11561.609375
1990.962891	11469.190430
1989.828125	11456.222656
1988.695312	11321.944336
1987.562500	11375.165039
1986.427734	11315.914062
1985.292969	11554.303711
1984.160156	11499.450195
1983.025391	11303.567383
1981.890625	11400.814453
1980.755859	11326.184570
1979.621094	11405.772461
1978.486328	11474.320312
1977.351562	11192.727539
1976.214844	11305.320312
1975.080078	11111.901367
1973.943359	11215.665039
1972.806641	11297.387695
1971.671875	11326.280273
1970.535156	11220.976562
1969.398438	11478.607422
1968.261719	11217.183594
1967.123047	11131.738281
1965.986328	11239.769531
1964.849609	11097.204102
1963.710938	11244.759766
1962.574219	11269.223633
1961.435547	11280.499023
1960.296875	11153.395508
1959.158203	11195.430664
1958.019531	11276.972656
1956.880859	11255.307617
1955.742188	11251.208984
1954.603516	11196.636719
1953.464844	11157.441406
1952.324219	11052.444336
1951.185547	11278.693359
1950.044922	11309.681641
1948.904297	11119.196289
1947.763672	11101.968750
1946.623047	11032.139648
1945.482422	11159.576172
1944.341797	11227.807617
1943.201172	11024.349609
1942.060547	10974.292969
1940.917969	10954.915039
1939.777344	10854.523438
1938.634766	11023.457031
1937.492188	11034.725586
1936.349609	11131.345703
1935.207031	10844.989258
1934.064453	10976.614258
1932.921875	11027.256836
1931.779297	10738.874023
1930.636719	10957.919922
1929.492188	11085.063477
1928.349609	11122.535156
1927.205078	10867.115234
1926.060547	10957.057617
1924.917969	10736.709961
1923.773438	10824.458984
1922.628906	10770.205078
1921.482422	10851.366211
1920.337891	10753.457031
1919.193359	10895.718750
1918.046875	10754.180664
1916.902344	10617.054688
1915.755859	10929.459961
1914.611328	10825.073242
1913.464844	10901.763672
1912.318359	10923.906250
1911.171875	10830.475586
1910.025391	10728.355469
1908.876953	10885.660156
1907.730469	10718.182617
1906.583984	10892.866211
1905.435547	10860.520508
1904.289062	10638.674805
1903.140625	10717.454102
1901.992188	10687.330078
1900.843750	10607.141602
1899.695312	10553.100586
1898.546875	10760.249023
1897.398438	10649.623047
1896.248047	10880.616211
1895.099609	10791.759766
1893.949219	10698.582031
1892.800781	10692.419922
1891.650391	10858.021484
1890.500000	10667.056641
1889.349609	10652.207031
1888.199219	10702.555664
1887.048828	10552.995117
1885.898438	10549.034180
1884.748047	10723.177734
1883.595703	10688.784180
1882.445312	10663.087891
1881.292969	10821.926758
1880.140625	10694.200195
1878.990234	10681.536133
1877.837891	10586.423828
1876.685547	10662.727539
1875.533203	10626.213867
1874.378906	10654.773438
1873.226562	10691.996094
1872.074219	10651.159180
1870.919922	10692.704102
1869.765625	10606.368164
1868.613281	10639.238281
1867.458984	10624.434570
1866.304688	10722.273438
1865.150391	10601.337891
1863.996094	10683.989258
1862.841797	10478.665039
1861.685547	10766.949219
1860.531250	10663.401367
1859.375000	10936.408203
1858.220703	10711.707031
1857.064453	10621.199219
1855.908203	10671.303711
1854.751953	10779.777344
1853.595703	10667.681641
1852.439453	10737.207031
1851.283203	10538.702148
1850.126953	10418.059570
1848.968750	10664.761719
1847.812500	10529.015625
1846.654297	10715.136719
1845.496094	10665.808594
1844.337891	10476.152344
1843.181641	10580.153320
1842.023438	10692.752930
1840.863281	10460.026367
1839.705078	10689.121094
1838.546875	10834.002930
1837.386719	10584.114258
1836.228516	10549.968750
1835.068359	10537.395508
1833.908203	10744.722656
1832.750000	10611.413086
1831.589844	10680.729492
1830.429688	10653.057617
1829.269531	10666.329102
1828.107422	10580.509766
1826.947266	10742.389648
1825.787109	10656.586914
1824.625000	10624.634766
1823.462891	10556.100586
1822.302734	10672.676758
1821.140625	10700.989258
1819.978516	10572.234375
1818.816406	10555.380859
1817.654297	10424.542969
1816.490234	10607.702148
1815.328125	10597.298828
1814.166016	10664.286133
1813.001953	10524.920898
1811.837891	10452.217773
1810.675781	10611.581055
1809.511719	10764.444336
1808.347656	10541.391602
1807.183594	10576.105469
1806.019531	10711.719727
1804.853516	10566.069336
1803.689453	10701.638672
1802.523438	10523.848633
1801.359375	10620.756836
1800.193359	10633.967773
1799.027344	10531.349609
1797.863281	10546.714844
1796.697266	10572.794922
1795.531250	10397.350586
1794.363281	10594.919922
1793.197266	10500.966797
1792.031250	10475.610352
1790.863281	10413.843750
1789.697266	10525.595703
1788.529297	10395.309570
1787.361328	10545.568359
1786.193359	10498.815430
1785.025391	10460.640625
1783.857422	10495.243164
1782.689453	10418.565430
1781.521484	10540.877930
1780.351562	10496.302734
1779.183594	10524.458008
1778.013672	10497.007812
1776.843750	10392.598633
1775.675781	10444.269531
1774.505859	10474.550781
1773.335938	10363.787109
1772.166016	10584.219727
1770.994141	10535.422852
1769.824219	10678.861328
1768.654297	10497.668945
1767.482422	10357.103516
1766.312500	10393.764648
1765.140625	10432.546875
1763.968750	10460.646484
1762.796875	10345.784180
1761.625000	10378.154297
1760.453125	10269.744141
1759.281250	10351.162109
1758.107422	10462.402344
1756.935547	10287.947266
1755.761719	10254.223633
1754.589844	10397.387695
1753.416016	10348.742188
1752.242188	10419.410156
1751.068359	10257.887695
1749.894531	10332.805664
1748.720703	10305.495117
1747.546875	10359.089844
1746.371094	10404.152344
1745.197266	10310.869141
1744.021484	10353.794922
1742.847656	10500.950195
1741.671875	10307.725586
1740.496094	10269.815430
1739.320312	10059.684570
1738.144531	10238.677734
1736.968750	10219.927734
1735.792969	10224.561523
1734.615234	10284.440430
1733.439453	10312.430664
1732.261719	10393.514648
1731.083984	10257.943359
1729.908203	10360.243164
1728.730469	10192.876953
1727.552734	10169.912109
1726.375000	10174.544922
1725.195312	10278.909180
1724.017578	10272.913086
1722.839844	10129.037109
1721.660156	10197.299805
1720.480469	10176.475586
1719.302734	10140.817383
1718.123047	10238.718750
1716.943359	10200.941406
1715.763672	10228.869141
1714.583984	10059.744141
1713.404297	10166.065430
1712.222656	10223.635742
1711.042969	9986.832031
1709.861328	10198.974609
1708.681641	10023.646484
1707.500000	10142.580078
1706.318359	10181.057617
1705.136719	10278.765625
1703.955078	10057.000977
1702.773438	10133.543945
1701.591797	10055.683594
1700.408203	10290.780273
1699.226562	9919.067383
1698.042969	10156.219727
1696.859375	10080.520508
1695.677734	10249.949219
1694.494141	10047.502930
1693.310547	10050.011719
1692.126953	10046.184570
1690.941406	10169.048828
1689.757812	10082.866211
1688.574219	10066.369141
1687.388672	10022.442383
1686.205078	10054.492188
1685.019531	9987.374023
1683.833984	9878.091797
1682.648438	10036.687500
1681.462891	9935.868164
1680.277344	9866.707031
1679.091797	10191.748047
1677.904297	10061.446289
1676.718750	9975.440430
1675.531250	9952.667969
1674.345703	10212.169922
1673.158203	10092.483398
1671.970703	10086.547852
1670.783203	9912.182617
1669.595703	10057.840820
1668.408203	10062.436523
1667.220703	9848.181641
1666.031250	10029.542969
1664.843750	9975.239258
1663.654297	9965.122070
1662.466797	9881.406250
1661.277344	9915.460938
1660.087891	9964.217773
1658.898438	9739.723633
1657.708984	10032.260742
1656.519531	10089.375977
1655.328125	9934.298828
1654.138672	9957.804688
1652.947266	10000.202148
1651.757812	10011.090820
1650.566406	9971.591797
1649.375000	9862.841797
1648.183594	9894.732422
1646.992188	9767.148438
1645.800781	10034.002930
1644.609375	9902.242188
1643.416016	9709.709961
1642.224609	9886.275391
1641.031250	9683.329102
1639.839844	9845.165039
1638.646484	9954.552734
1637.453125	9845.988281
1636.259766	9779.359375
1635.066406	9999.715820
1633.873047	9815.804688
1632.677734	9721.994141
1631.484375	9833.381836
1630.291016	9959.383789
1629.095703	9867.688477
1627.900391	9792.763672
1626.705078	9878.956055
1625.509766	9971.394531
1624.314453	9915.312500
1623.119141	9658.508789
1621.923828	9730.029297
1620.728516	9669.834961
1619.531250	9651.459961
1618.335938	9639.360352
1617.138672	9706.655273
1615.941406	9663.215820
1614.744141	9734.660156
1613.546875	9732.994141
1612.349609	9614.409180
1611.152344	9585.625977
1609.955078	9581.898438
1608.755859	9780.584961
1607.558594	9724.664062
1606.359375	9812.698242
1605.162109	9677.535156
1603.962891	9702.986328
1602.763672	9651.286133
1601.564453	9528.725586
1600.365234	9664.654297
1599.166016	9673.417969
1597.964844	9709.264648
1596.765625	9486.785156
1595.564453	9599.714844
1594.365234	9406.483398
1593.164062	9592.261719
1591.962891	9586.454102
1590.761719	9480.742188
1589.560547	9574.845703
1588.359375	9654.351562
1587.156250	9615.250977
1585.955078	9526.245117
1584.751953	9395.676758
1583.550781	9579.120117
1582.347656	9698.053711
1581.144531	9625.721680
1579.941406	9509.771484
1578.738281	9549.698242
1577.535156	9431.722656
1576.332031	9473.724609
1575.128906	9478.331055
1573.923828	9505.775391
1572.720703	9489.613281
1571.515625	9645.739258
1570.310547	9276.750977
1569.105469	9513.783203
1567.900391	9408.419922
1566.695312	9336.281250
1565.490234	9372.010742
1564.285156	9360.036133
1563.078125	9547.091797
1561.873047	9450.103516
1560.666016	9388.379883
1559.460938	9550.468750
1558.253906	9235.991211
1557.046875	9321.407227
1555.839844	9456.498047
1554.632812	9448.664062
1553.423828	9463.605469
1552.216797	9517.872070
1551.009766	9524.517578
1549.800781	9574.615234
1548.591797	9366.078125
1547.384766	9424.459961
1546.175781	9476.616211
1544.966797	9249.591797
1543.757812	9487.836914
1542.546875	9504.812500
1541.337891	9306.833984
1540.128906	9299.037109
1538.917969	9448.266602
1537.707031	9370.211914
1536.498047	9426.434570
1535.287109	9261.677734
1534.076172	9274.541016
1532.865234	9305.977539
1531.654297	9384.874023
1530.441406	9383.262695
1529.230469	9146.439453
1528.019531	9349.096680
1526.806641	9425.868164
1525.593750	9290.207031
1524.380859	9228.817383
1523.169922	9165.387695
1521.957031	9246.258789
1520.742188	9277.642578
1519.529297	9271.928711
1518.316406	9198.233398
1517.101562	9256.384766
1515.888672	9265.090820
1514.673828	9232.614258
1513.458984	9338.078125
1512.246094	9305.598633
1511.031250	9102.320312
1509.816406	9308.574219
1508.599609	9140.337891
1507.384766	9262.179688
1506.169922	9157.761719
1504.953125	9195.254883
1503.736328	9117.608398
1502.521484	9255.813477
1501.304688	9104.198242
1500.087891	9057.428711
1498.871094	8996.293945
1497.654297	9218.639648
1496.437500	9219.108398
1495.218750	9061.468750
1494.001953	9117.394531
1492.783203	9187.669922
1491.564453	9023.958008
1490.347656	9036.769531
1489.128906	9127.537109
1487.910156	9138.275391
1486.691406	9173.619141
1485.470703	9211.001953
1484.251953	8959.294922
1483.033203	8955.704102
1481.812500	9087.379883
1480.591797	9171.879883
1479.373047	9016.643555
1478.152344	8982.318359
1476.931641	9034.022461
1475.710938	8946.463867
1474.488281	9035.008789
1473.267578	9090.770508
1472.046875	8972.545898
1470.824219	9212.465820
1469.603516	9067.664062
1468.380859	8992.461914
1467.158203	8995.004883
1465.935547	8958.693359
1464.712891	8953.062500
1463.490234	8886.106445
1462.267578	8735.376953
1461.042969	9167.092773
1459.820312	8867.216797
1458.595703	9031.155273
1457.371094	8888.672852
1456.148438	8801.375000
1454.923828	9057.117188
1453.699219	8977.985352
1452.474609	9021.341797
1451.248047	9042.235352
1450.023438	8875.412109
1448.796875	9073.800781
1447.572266	8888.671875
1446.345703	8919.769531
1445.119141	9001.828125
1443.894531	8827.000000
1442.667969	9019.109375
1441.439453	8936.041016
1440.212891	8973.214844
1438.986328	9136.678711
1437.757812	8837.729492
1436.531250	8974.686523
1435.302734	8859.118164
1434.076172	8894.235352
1432.847656	8886.595703
1431.619141	8994.958008
1430.390625	8999.511719
1429.160156	8871.830078
1427.931641	8933.355469
1426.703125	9011.127930
1425.472656	8956.708984
1424.244141	8635.991211
1423.013672	8937.360352
1421.783203	8754.949219
1420.552734	9100.894531
1419.322266	9129.798828
1418.091797	8953.541016
1416.861328	9053.540039
1415.628906	8944.362305
1414.398438	8764.166992
1413.166016	8886.473633
1411.933594	8968.148438
1410.703125	8838.767578
1409.470703	8898.106445
1408.238281	8918.883789
1407.003906	8893.008789
1405.771484	8842.809570
1404.539062	8912.241211
1403.304688	9048.540039
1402.072266	8793.647461
1400.837891	8899.524414
1399.603516	8928.377930
1398.369141	8971.401367
1397.134766	8817.958984
1395.900391	8820.487305
1394.666016	8964.732422
1393.431641	8997.597656
1392.195312	9058.784180
1390.960938	9034.961914
1389.724609	8932.244141
1388.488281	8811.356445
1387.251953	8987.812500
1386.015625	9036.813477
1384.779297	8922.035156
1383.542969	8904.323242
1382.306641	8789.606445
1381.068359	8986.119141
1379.832031	8936.078125
1378.593750	8879.995117
1377.355469	8827.969727
1376.117188	8794.135742
1374.878906	8946.059570
1373.640625	8839.545898
1372.402344	8856.183594
1371.164062	8761.829102
1369.923828	8721.982422
1368.685547	8885.887695
1367.445312	8759.306641
1366.205078	8786.024414
1364.964844	8919.590820
1363.724609	8750.736328
1362.484375	8759.301758
1361.244141	8868.620117
1360.003906	8717.994141
1358.761719	8919.946289
1357.521484	8704.910156
1356.279297	8723.543945
1355.039062	8742.169922
1353.796875	8795.011719
1352.554688	8656.627930
1351.312500	8783.921875
1350.070312	8675.767578
1348.826172	8712.489258
1347.583984	8751.208984
1346.339844	8596.863281
1345.097656	8701.939453
1343.853516	8601.931641
1342.609375	8604.463867
1341.365234	8699.435547
1340.121094	8515.091797
1338.876953	8698.436523
1337.632812	8668.812500
1336.386719	8617.109375
1335.142578	8547.352539
1333.896484	8684.390625
1332.650391	8524.324219
1331.406250	8482.713867
1330.160156	8585.582031
1328.914062	8541.968750
1327.666016	8456.249023
1326.419922	8741.558594
1325.173828	8575.631836
1323.925781	8614.242188
1322.679688	8480.463867
1321.431641	8517.072266
1320.183594	8501.573242
1318.935547	8586.245117
1317.687500	8714.952148
1316.439453	8647.357422
1315.191406	8525.723633
1313.941406	8526.250000
1312.693359	8574.813477
1311.443359	8503.286133
1310.193359	8475.801758
1308.945312	8152.246094
1307.695312	8480.868164
1306.445312	8365.408203
1305.195312	8417.946289
1303.943359	8432.482422
1302.693359	8361.063477
1301.441406	8313.650391
1300.191406	8334.190430
1298.939453	8328.750977
1297.687500	8417.193359
1296.435547	8331.857422
1295.183594	8424.261719
1293.931641	8430.788086
1292.679688	8365.454102
1291.425781	8268.210938
1290.173828	8294.713867
1288.919922	8337.166992
1287.667969	8383.594727
1286.414062	8262.482422
1285.160156	8326.852539
1283.906250	8357.307617
1282.652344	8353.866211
1281.396484	8438.114258
1280.142578	8396.799805
1278.888672	8253.895508
1277.632812	8240.513672
1276.376953	8364.552734
1275.121094	8412.883789
1273.867188	8232.247070
1272.609375	8405.986328
1271.353516	8464.234375
1270.097656	8357.305664
1268.841797	8256.381836
1267.583984	8437.952148
1266.328125	8245.564453
1265.070312	8377.360352
1263.812500	8441.515625
1262.554688	8306.871094
1261.296875	8212.021484
1260.039062	8282.132812
1258.781250	8328.377930
1257.521484	8332.892578
1256.263672	8474.441406
1255.003906	8302.202148
1253.744141	8304.732422
1252.486328	8281.456055
1251.226562	8192.694336
1249.966797	8290.489258
1248.705078	8259.291016
1247.445312	8297.530273
1246.185547	8274.274414
1244.923828	8324.394531
1243.664062	8340.793945
1242.402344	8301.683594
1241.140625	8369.609375
1239.878906	8275.023438
1238.617188	8305.286133
1237.355469	8365.251953
1236.093750	8324.189453
1234.830078	8205.913086
1233.568359	8222.306641
1232.304688	8325.792969
1231.041016	8445.076172
1229.777344	8332.795898
1228.513672	8212.640625
1227.250000	8238.908203
1225.986328	8308.677734
1224.722656	8425.881836
1223.457031	8460.005859
1222.193359	8343.884766
1220.927734	8296.978516
1219.664062	8238.231445
1218.398438	8418.567383
1217.132812	8369.695312
1215.867188	8312.940430
1214.599609	8275.951172
1213.333984	8343.616211
1212.068359	8174.375488
1210.800781	8313.085938
1209.533203	8293.880859
1208.267578	8359.521484
1207.000000	8452.754883
1205.732422	8299.418945
1204.464844	8219.098633
1203.197266	8251.187500
1201.927734	8060.511719
1200.660156	8319.272461
1199.390625	8341.473633
1198.123047	8322.291992
1196.853516	8242.048828
1195.583984	8289.854492
1194.314453	8308.105469
1193.044922	8292.878906
1191.775391	8458.761719
1190.503906	8339.200195
1189.234375	8239.357422
1187.962891	8253.665039
1186.691406	8267.966797
1185.421875	8170.154785
1184.150391	8314.252930
1182.878906	8157.482422
1181.607422	8250.420898
1180.333984	8241.124023
1179.062500	8111.958496
1177.789062	8214.679688
1176.517578	8109.136230
1175.244141	8270.744141
1173.970703	8292.870117
1172.697266	8195.220703
1171.423828	8166.311523
1170.150391	8078.531250
1168.876953	8073.200684
1167.603516	8338.631836
1166.328125	8280.291992
1165.052734	8231.778320
1163.779297	8147.982910
1162.503906	7962.262207
1161.228516	8023.606445
1159.953125	8139.808594
1158.677734	8157.987793
1157.400391	8089.951172
1156.125000	8086.583984
1154.847656	8138.058594
1153.572266	8193.431641
1152.294922	8109.771484
1151.017578	8153.383789
1149.740234	8056.058105
1148.462891	8029.215332
1147.185547	8198.039062
1145.908203	8249.428711
1144.628906	8070.006348
1143.351562	8000.156250
1142.072266	8061.329102
1140.792969	8030.601562
1139.513672	7976.430176
1138.234375	8023.895508
1136.955078	7952.158691
1135.675781	8118.774902
1134.396484	8011.889160
1133.115234	8039.785156
1131.835938	8118.436035
1130.554688	7814.438477
1129.273438	7895.052734
1127.992188	8075.162598
1126.710938	8065.950684
1125.429688	8095.757324
1124.148438	7938.310547
1122.865234	8081.234375
1121.583984	7884.849121
1120.300781	7955.603027
1119.019531	8043.874023
1117.736328	7863.186523
1116.453125	7961.184082
1115.169922	7893.562012
1113.886719	7964.250977
1112.601562	7861.598145
1111.318359	8006.255371
1110.033203	7870.536133
1108.750000	7649.224121
1107.464844	7852.222656
1106.179688	7794.428223
1104.894531	7841.702148
1103.609375	7883.124023
1102.324219	7728.120117
1101.037109	7814.266602
1099.751953	7801.239258
1098.464844	7764.892090
1097.179688	7829.609863
1095.892578	7824.357422
1094.605469	7749.171875
1093.318359	7842.992188
1092.031250	7711.512207
1090.744141	7690.750000
1089.455078	7780.647461
1088.167969	7684.183594
1086.878906	7667.317383
1085.591797	7827.020508
1084.302734	7633.601562
1083.013672	7866.958496
1081.724609	7708.506348
1080.435547	7751.754883
1079.144531	7727.138672
1077.855469	7650.198242
1076.564453	7631.421387
1075.275391	7657.214355
1073.984375	7686.872559
1072.693359	7617.739258
1071.402344	7604.789062
1070.111328	7669.291504
1068.820312	7652.465332
1067.529297	7571.771973
1066.236328	7609.152832
1064.945312	7567.191406
1063.652344	7492.357910
1062.359375	7523.929688
1061.066406	7657.983398
1059.773438	7407.224121
1058.480469	7523.852539
1057.187500	7561.193848
1055.894531	7612.049805
1054.599609	7485.129883
1053.306641	7680.865723
1052.011719	7387.871094
1050.716797	7450.307129
1049.421875	7626.637695
1048.126953	7513.337891
1046.832031	7398.147461
1045.537109	7535.798340
1044.240234	7368.548340
1042.945312	7483.006348
1041.648438	7473.982910
1040.351562	7341.542480
1039.054688	7396.173340
1037.757812	7458.496094
1036.460938	7370.457520
1035.164062	7315.209961
1033.867188	7427.608398
1032.568359	7630.508789
1031.271484	7502.053223
1029.972656	7392.899414
1028.673828	7557.190430
1027.375000	7403.788086
1026.076172	7412.116211
1024.777344	7455.080566
1023.478516	7426.839355
1022.177734	7363.980469
1020.878906	7393.465820
1019.578125	7342.172852
1018.279297	7369.728516
1016.978516	7389.584961
1015.677734	7501.691406
1014.376953	7498.456543
1013.076172	7399.154297
1011.773438	7418.990234
1010.472656	7554.060059
1009.169922	7529.693359
1007.869141	7336.373535
1006.566406	7285.177734
1005.263672	7471.997559
1003.960938	7388.171875
1002.658203	7335.073730
1001.355469	7533.295898
1000.050781	7416.896484
998.748047	7216.160645
997.443359	7441.141113
996.138672	7368.909180
994.835938	7269.869141
993.531250	7358.662598
992.226562	7330.549316
990.919922	7453.782227
989.615234	7283.928711
988.310547	7499.044922
987.003906	7269.888672
985.697266	7349.015625
984.392578	7278.824707
983.085938	7486.135254
981.779297	7295.406738
980.472656	7332.387207
979.164062	7388.480957
977.857422	7337.465820
976.550781	7299.852539
975.242188	7277.544922
973.933594	7387.124023
972.626953	7387.739746
971.318359	7350.142578
970.009766	7249.519531
968.699219	7248.248047
967.390625	7329.090332
966.082031	7249.524902
964.771484	7288.341309
963.460938	7163.003418
962.152344	7238.078125
960.841797	7183.386230
959.531250	7401.500488
958.220703	7255.249512
956.908203	7175.792480
955.597656	7325.155273
954.287109	7283.838379
952.974609	7019.541992
951.662109	7325.111328
950.351562	7121.868164
949.039062	7221.579590
947.726562	7182.220703
946.412109	7262.843262
945.099609	7223.490234
943.787109	7121.332031
942.472656	7125.791504
941.158203	7080.773926
939.845703	7111.875000
938.531250	7040.242676
937.216797	7276.747070
935.902344	7148.062988
934.585938	7036.535645
933.271484	7088.525879
931.957031	7094.883301
930.640625	7072.734863
929.324219	6870.101562
928.007812	7039.857422
926.693359	7129.785156
925.375000	7056.374023
924.058594	6998.176758
922.742188	6957.084473
921.425781	7045.064453
920.107422	7131.115723
918.789062	6949.624023
917.472656	6942.712402
916.154297	7072.356934
914.835938	6928.895508
913.517578	6899.239258
912.197266	6983.328125
910.878906	6955.567383
909.558594	6944.870117
908.240234	6913.336426
906.919922	6942.429199
905.599609	6852.194824
904.279297	6960.818359
902.958984	6845.999512
901.638672	6875.083008
900.318359	6902.262695
898.996094	6859.419922
897.675781	6867.673340
896.353516	6781.344238
895.031250	6869.041016
893.708984	6761.941406
892.386719	6874.187500
891.064453	6922.125488
889.742188	6811.292480
888.417969	6823.321289
887.095703	6831.567383
885.771484	6888.922852
884.447266	6848.050293
883.125000	6750.543945
881.800781	6826.761719
880.476562	6791.583984
879.150391	6792.275879
877.826172	6806.176270
876.500000	6755.927246
875.175781	6835.848145
873.849609	6847.846680
872.523438	6793.844238
871.197266	6862.403809
869.871094	6878.160645
868.544922	6925.949707
867.218750	6839.937988
865.890625	6819.894531
864.564453	6675.539062
863.236328	6815.609863
861.908203	6763.570312
860.582031	6696.487793
859.251953	6723.542969
857.923828	6690.365723
856.595703	6815.256348
855.267578	6688.009277
853.937500	6844.832520
852.609375	6710.102051
851.279297	6804.815430
849.949219	6730.298340
848.619141	6877.604004
847.289062	6789.944336
845.958984	6694.799316
844.626953	6902.149414
843.296875	6878.393555
841.964844	6773.892578
840.634766	6776.454102
839.302734	6763.996094
837.970703	6732.772461
836.638672	6797.269043
835.306641	6734.152344
833.972656	6706.701172
832.640625	6696.140625
831.306641	6762.472656
829.974609	6667.530273
828.640625	6861.321289
827.306641	6721.410156
825.972656	6740.838867
824.638672	6807.103516
823.304688	6772.182617
821.968750	6643.622559
820.634766	6779.157715
819.298828	6716.174316
817.962891	6615.771973
816.626953	6796.160645
815.291016	6727.592285
813.955078	6741.374023
812.619141	6656.002930
811.283203	6748.348145
809.945312	6567.632324
808.609375	6624.435059
807.271484	6552.229004
805.933594	6530.513672
804.595703	6654.566406
803.257812	6565.577148
801.919922	6603.647949
800.582031	6675.324707
799.242188	6582.643066
797.904297	6489.994141
796.564453	6552.318359
795.224609	6487.703125
793.884766	6458.566406
792.544922	6448.097656
791.205078	6557.020020
789.865234	6535.346191
788.523438	6470.790039
787.183594	6436.087402
785.841797	6416.309570
784.500000	6575.462891
783.158203	6374.911133
781.816406	6496.751953
780.474609	6441.583496
779.132812	6336.146973
777.791016	6297.784668
776.447266	6464.235840
775.103516	6280.667969
773.761719	6275.836426
772.417969	6332.413086
771.074219	6344.317871
769.730469	6464.108398
768.386719	6243.504395
767.041016	6322.360352
765.697266	6129.746582
764.351562	6269.937012
763.005859	6281.838379
761.662109	6256.571777
760.316406	6357.648926
758.970703	6285.938477
757.623047	6177.108398
756.277344	6218.725098
754.931641	6219.481934
753.583984	6151.558105
752.236328	6263.680664
750.890625	6153.094238
749.542969	6085.217285
748.195312	6034.058105
746.845703	6198.049805
745.498047	6387.943359
744.150391	6214.397461
742.800781	6120.617676
741.451172	6002.778320
740.103516	6092.511230
738.753906	6169.243652
737.404297	6110.731445
736.054688	6068.906738
734.703125	6147.453613
733.353516	6007.517578
732.001953	6061.983887
730.652344	6121.983398
729.300781	5982.125000
727.949219	6086.516602
726.597656	6163.125977
725.246094	6078.814453
723.894531	6048.153809
722.541016	6035.991211
721.189453	5986.865234
719.835938	5915.579590
718.482422	6115.933594
717.128906	5994.770508
715.775391	5951.226562
714.421875	6057.283203
713.068359	5956.504883
711.714844	5951.757812
710.359375	5972.853027
709.005859	6069.603027
707.650391	5954.131836
706.294922	5965.990723
704.939453	5981.533691
703.583984	5882.735840
702.228516	5970.195801
700.871094	5972.825195
699.515625	5922.002441
698.158203	5952.280762
696.802734	5899.636719
695.445312	6001.752441
694.087891	5829.398438
692.730469	5826.523926
691.373047	5882.567871
690.013672	5892.570312
688.656250	5858.396484
687.296875	6013.775391
685.939453	5819.522461
684.580078	5978.531250
683.220703	5953.561523
681.861328	5823.783691
680.501953	5837.459473
679.140625	5932.013184
677.781250	5805.982910
676.419922	5830.679688
675.058594	5836.995117
673.699219	5863.514160
672.337891	5805.539062
670.976562	5854.089355
669.615234	5764.924805
668.251953	5826.313477
666.890625	5854.645020
665.527344	5776.537109
664.166016	5856.237305
662.802734	5846.026855
661.439453	5826.649414
660.076172	5796.276855
658.712891	5897.916504
657.347656	5840.045898
655.984375	5806.020508
654.619141	5792.163574
653.255859	5701.364746
651.890625	5775.453613
650.525391	5807.394043
649.160156	5788.052246
647.794922	5680.840820
646.427734	5762.201660
645.062500	5737.387695
643.697266	5785.772949
642.330078	5819.505371
640.962891	5725.186523
639.595703	5815.609863
638.228516	5801.777832
636.861328	5698.370605
635.494141	5744.882324
634.125000	5630.556641
632.757812	5633.210938
631.388672	5677.881348
630.019531	5574.586914
628.650391	5659.428711
627.281250	5568.954590
625.912109	5640.987793
624.542969	5548.723633
623.173828	5664.532227
621.802734	5639.806152
620.431641	5653.397949
619.062500	5570.315918
617.691406	5660.506836
616.320312	5635.797852
614.949219	5603.805664
613.576172	5717.636230
612.205078	5645.549316
610.832031	5693.739746
609.460938	5608.930664
608.087891	5480.438965
606.714844	5504.958984
605.341797	5529.469727
603.968750	5599.481445
602.595703	5471.081543
601.220703	5548.357422
599.847656	5525.537598
598.472656	5557.298340
597.097656	5503.565918
595.722656	5453.489258
594.347656	5407.066406
592.972656	5484.269531
591.597656	5525.095215
590.220703	5407.815430
588.845703	5441.372559
587.468750	5453.120117
586.091797	5355.892578
584.716797	5434.836914
583.339844	5366.695312
581.960938	5474.652344
580.583984	5337.562012
579.207031	5340.241211
577.828125	5328.405273
576.449219	5356.479004
575.072266	5353.711914
573.693359	5289.294434
572.314453	5239.403320
570.935547	5213.093750
569.554688	5288.282227
568.175781	5240.229492
566.794922	5188.569824
565.416016	5205.759277
564.035156	5300.815430
562.654297	5372.298828
561.273438	5179.443359
559.892578	5160.420410
558.511719	5300.659180
557.128906	5220.101562
555.748047	5210.126465
554.365234	5198.345703
552.982422	5128.699219
551.599609	5144.058105
550.216797	5074.445801
548.833984	5044.622559
547.451172	5170.223145
546.066406	5212.665039
544.683594	5069.022949
543.298828	5153.009766
541.914062	5182.791016
540.529297	5207.144531
539.144531	4991.396484
537.759766	5055.482422
536.375000	5014.880859
534.988281	5235.908203
533.603516	5083.445801
532.216797	5188.951660
530.830078	5058.190430
529.443359	5113.179688
528.056641	5065.399414
526.669922	4997.810547
525.283203	4991.513184
523.894531	4929.366211
522.507812	4998.739258
521.119141	5161.741211
519.730469	5040.172852
518.341797	4942.053223
516.953125	4932.170898
515.564453	4996.081543
514.173828	4975.396484
512.785156	5096.847656
511.394531	5088.742676
510.005859	4938.562500
508.615234	5006.010254
507.224609	5014.105957
505.833984	5011.413574
504.441406	4953.009277
503.050781	4961.109375
501.660156	5064.422852
500.267578	4838.992188
498.875000	4978.207520
497.482422	4975.523438
496.089844	4879.486816
494.697266	4939.642578
493.304688	4904.663086
491.912109	4869.695801
490.517578	4850.886230
489.125000	4954.051270
487.730469	4967.513184
486.335938	4882.354492
484.941406	4899.409180
483.546875	4920.042480
482.150391	4929.915527
480.755859	4884.241699
479.361328	4877.994629
477.964844	4954.139648
476.568359	4894.159180
475.171875	4827.038086
473.775391	4869.138672
472.378906	4780.567871
470.982422	4760.029297
469.583984	4789.594238
468.187500	4831.670410
466.789062	4864.788574
465.390625	4699.403809
463.992188	4673.533203
462.593750	4863.967285
461.195312	4732.628418
459.796875	4721.060547
458.396484	4768.455078
456.998047	4672.928711
455.597656	4675.665039
454.197266	4612.331055
452.796875	4665.065918
451.396484	4726.707031
449.996094	4611.641113
448.595703	4692.897461
447.193359	4624.263672
445.792969	4671.597168
444.390625	4688.595703
442.988281	4725.201660
441.585938	4590.647949
440.183594	4732.422852
438.781250	4722.665527
437.376953	4572.147461
435.974609	4662.185547
434.570312	4468.983398
433.166016	4603.529297
431.763672	4650.779785
430.359375	4630.364746
428.953125	4485.363281
427.548828	4577.099121
426.144531	4594.072266
424.738281	4573.681152
423.333984	4606.656250
421.927734	4602.274414
420.521484	4519.662598
419.115234	4540.185059
417.708984	4574.919434
416.300781	4488.801758
414.894531	4505.765137
413.486328	4590.225098
412.080078	4399.361816
410.671875	4526.428711
409.263672	4483.007324
407.855469	4430.725098
406.447266	4571.916016
405.037109	4539.156250
403.628906	4508.181641
402.218750	4420.454590
400.810547	4464.000977
399.400391	4450.788086
397.990234	4567.002441
396.580078	4520.096191
395.167969	4395.227051
393.757812	4452.913574
392.347656	4397.194824
390.935547	4392.863770
389.523438	4397.389160
388.111328	4412.536621
386.699219	4388.730469
385.287109	4395.023926
383.875000	4452.636719
382.460938	4363.367676
381.048828	4497.036133
379.634766	4423.709473
378.220703	4297.355469
376.808594	4197.568359
375.392578	4315.259766
373.978516	4386.953613
372.564453	4239.489258
371.150391	4235.194824
369.734375	4199.104004
368.318359	4353.779297
366.902344	4236.447266
365.486328	4226.858887
364.070312	4220.804688
362.654297	4221.812012
361.238281	4286.346191
359.820312	4246.761230
358.404297	4268.931152
356.986328	4227.599609
355.568359	4189.809570
354.150391	4185.531250
352.732422	4234.136719
351.314453	4180.503418
349.894531	4174.466309
348.476562	4251.235840
347.056641	4188.820312
345.636719	4084.158691
344.216797	4164.424316
342.796875	4211.210938
341.376953	4161.168457
339.957031	4086.504639
338.535156	4101.606934
337.115234	3988.276367
335.693359	4161.696777
334.271484	4062.464844
332.849609	3998.435059
331.427734	4032.876709
330.005859	3949.540283
328.583984	4034.941895
327.160156	4004.346680
325.738281	4000.113525
324.314453	3953.727295
322.890625	4010.968262
321.466797	3992.689209
320.042969	4007.770752
318.617188	3982.477783
317.193359	3892.264160
315.769531	3891.564209
314.343750	3982.083984
312.917969	3870.871826
311.492188	3845.625244
310.066406	3976.429443
308.640625	3884.560059
307.214844	3910.151123
305.787109	3926.970947
304.361328	3828.151855
302.933594	3841.476562
301.505859	3916.094971
300.078125	3808.575195
298.650391	3905.932129
297.222656	3808.955078
295.792969	3836.271729
294.365234	3805.834473
292.935547	3838.389893
291.505859	3750.239990
290.076172	3746.067383
288.646484	3677.199463
287.216797	3751.711670
285.787109	3724.817383
284.355469	3661.233154
282.925781	3702.508789
281.494141	3761.239502
280.062500	3666.242432
278.630859	3648.118652
277.199219	3746.985596
275.767578	3693.939209
274.335938	3684.546875
272.902344	3743.216309
271.470703	3636.110840
270.037109	3701.745361
268.603516	3660.963135
267.169922	3656.815918
265.736328	3753.793945
264.302734	3798.440918
262.867188	3632.181885
261.433594	3687.289795
259.998047	3808.583740
258.562500	3827.058838
257.126953	3767.153564
255.691406	3818.714111
254.255859	3720.529541
252.820312	3705.933350
251.382812	3731.370850
249.945312	3709.817383
248.509766	3549.091553
247.072266	3550.190918
245.634766	3593.029053
244.197266	3665.411133
242.757812	3600.425781
241.320312	3512.867188
239.882812	3470.524902
238.443359	3483.799316
237.003906	3460.586914
235.564453	3532.913574
234.125000	3549.642578
232.685547	3509.067139
231.246094	3430.314697
229.804688	3471.352051
228.363281	3470.725586
226.923828	3409.372559
225.482422	3412.226807
224.041016	3361.312744
222.599609	3405.792969
221.156250	3396.509277
219.714844	3395.896240
218.273438	3303.425293
216.830078	3358.280518
215.386719	3359.406738
213.943359	3421.160645
212.500000	3292.380859
211.056641	3948.065674
209.613281	5676.916504
208.167969	5817.832031
206.724609	6754.804688
205.279297	6497.491699
203.833984	3274.974854
202.388672	3215.572510
200.943359	3280.709717
199.498047	3212.681885
198.050781	3186.169434
196.605469	3247.819336
195.158203	3236.863525
193.710938	3199.993652
192.263672	3263.334717
190.816406	3259.290527
189.369141	3084.282471
187.921875	3178.688721
186.472656	3167.756348
185.023438	3118.856201
183.576172	3132.097900
182.126953	3059.066650
180.677734	3155.116455
179.228516	3128.674805
177.777344	3047.061279
176.328125	3082.716797
174.878906	3152.835205
173.427734	3072.984619
171.976562	3112.062012
170.525391	3027.078613
169.074219	3079.930420
167.623047	3062.151123
166.169922	3058.153320
164.718750	2997.343506
163.265625	3046.719238
161.814453	2987.654053
160.361328	3026.689453
158.908203	2981.412109
157.453125	2989.472900
156.000000	2959.696289
154.546875	2940.246826
153.091797	2963.782471
151.638672	2971.840332
150.183594	2928.339600
148.728516	2886.572998
147.273438	2920.408203
145.816406	2851.176514
144.361328	2855.812256
142.904297	2870.747803
141.449219	2810.145508
139.992188	2816.501953
138.535156	2857.176514
137.078125	2707.392334
135.621094	2742.925537
134.164062	2757.864502
132.705078	2705.921631
131.248047	2719.147217
129.789062	2593.521240
128.330078	2711.306885
126.871094	2630.279541
125.412109	2597.251709
123.953125	2643.030029
122.492188	2654.539307
121.033203	2623.237061
119.572266	2597.082031
118.111328	2601.746338
116.650391	2654.327148
115.189453	2636.735596
113.728516	2543.877441
112.267578	2539.995605
110.804688	2431.797363
109.343750	2489.490234
107.880859	2275.350830
106.417969	2194.605957
104.955078	2023.319702
103.492188	1966.569824
102.027344	1807.344604
100.564453	1882.166870
