#Wave		#Intensity
1999.057617	106006.656250
1998.089844	106884.984375
1997.122070	106631.312500
1996.154297	106488.773438
1995.186523	106795.539062
1994.217773	106828.554688
1993.249023	106662.812500
1992.280273	106538.414062
1991.311523	106514.679688
1990.341797	106803.101562
1989.373047	107093.992188
1988.403320	106977.320312
1987.433594	107074.695312
1986.463867	106736.367188
1985.494141	106818.273438
1984.524414	106964.578125
1983.553711	107012.914062
1982.583008	107112.750000
1981.613281	106625.296875
1980.641602	107088.265625
1979.670898	106747.734375
1978.700195	106644.164062
1977.728516	107330.804688
1976.756836	106923.492188
1975.785156	106719.578125
1974.813477	107197.460938
1973.841797	106522.875000
1972.869141	107149.765625
1971.897461	106845.664062
1970.924805	107184.351562
1969.952148	106965.164062
1968.979492	107658.343750
1968.005859	106729.984375
1967.033203	106996.507812
1966.059570	107160.195312
1965.085938	107531.835938
1964.112305	107310.218750
1963.138672	107317.156250
1962.165039	107413.921875
1961.190430	107425.968750
1960.215820	107245.562500
1959.242188	107739.906250
1958.266602	107362.007812
1957.291992	108004.890625
1956.317383	107206.562500
1955.341797	108190.195312
1954.366211	107856.039062
1953.390625	107229.843750
1952.415039	107628.757812
1951.439453	107835.390625
1950.463867	107803.750000
1949.487305	107549.312500
1948.510742	107463.953125
1947.534180	107847.093750
1946.557617	107347.054688
1945.580078	108275.164062
1944.603516	107378.625000
1943.625977	107485.218750
1942.648438	107504.796875
1941.670898	107434.859375
1940.693359	107518.359375
1939.715820	107673.398438
1938.737305	107746.593750
1937.758789	107403.210938
1936.780273	108386.023438
1935.801758	107222.601562
1934.823242	107942.015625
1933.844727	107131.484375
1932.865234	107917.039062
1931.885742	107492.265625
1930.906250	108012.023438
1929.926758	107115.265625
1928.947266	107384.851562
1927.966797	107508.929688
1926.986328	107597.250000
1926.006836	107507.031250
1925.026367	107562.164062
1924.044922	107963.976562
1923.064453	107748.835938
1922.083008	107615.304688
1921.102539	107644.890625
1920.121094	107480.851562
1919.139648	107846.640625
1918.157227	107545.101562
1917.175781	107523.734375
1916.193359	107364.906250
1915.211914	107257.031250
1914.229492	107823.570312
1913.246094	107479.015625
1912.263672	107383.890625
1911.281250	107560.937500
1910.297852	107526.851562
1909.314453	107022.390625
1908.331055	107351.929688
1907.347656	107892.304688
1906.363281	107499.851562
1905.379883	107310.796875
1904.395508	107271.687500
1903.411133	107776.125000
1902.426758	107968.023438
1901.442383	107329.593750
1900.458008	107790.585938
1899.472656	107855.468750
1898.487305	107389.945312
1897.501953	107041.289062
1896.516602	107895.195312
1895.531250	107290.398438
1894.544922	107989.265625
1893.559570	107417.609375
1892.573242	107005.867188
1891.586914	107929.976562
1890.599609	107999.757812
1889.613281	107849.085938
1888.625977	107665.523438
1887.639648	107114.765625
1886.652344	107311.242188
1885.665039	107677.281250
1884.676758	107081.234375
1883.689453	107745.843750
1882.701172	107218.304688
1881.713867	107027.460938
1880.725586	107135.179688
1879.736328	108044.632812
1878.748047	107714.648438
1877.759766	107427.757812
1876.770508	107042.367188
1875.781250	107271.289062
1874.791992	108058.601562
1873.802734	107478.750000
1872.812500	107672.093750
1871.823242	107706.250000
1870.833008	107202.507812
1869.842773	106999.390625
1868.852539	107813.664062
1867.862305	107794.750000
1866.871094	107730.414062
1865.880859	107693.851562
1864.889648	107160.343750
1863.898438	107981.421875
1862.907227	107357.265625
1861.915039	107661.148438
1860.923828	107541.421875
1859.931641	108152.640625
1858.939453	107715.351562
1857.947266	107807.304688
1856.955078	107838.757812
1855.961914	108049.023438
1854.969727	108062.796875
1853.976562	107573.007812
1852.983398	107166.453125
1851.990234	107603.187500
1850.997070	108407.164062
1850.002930	107615.726562
1849.008789	107808.132812
1848.014648	107764.046875
1847.020508	107805.476562
1846.026367	108083.218750
1845.032227	107692.195312
1844.037109	108336.804688
1843.042969	108232.335938
1842.047852	107738.468750
1841.051758	107754.710938
1840.056641	108401.343750
1839.061523	108397.367188
1838.065430	107612.562500
1837.069336	108120.804688
1836.073242	107921.101562
1835.077148	108311.156250
1834.081055	108126.539062
1833.083984	108709.570312
1832.086914	107268.406250
1831.090820	107776.148438
1830.092773	108138.289062
1829.095703	107931.281250
1828.098633	107827.093750
1827.100586	107996.078125
1826.102539	108197.562500
1825.104492	108338.859375
1824.106445	108029.281250
1823.108398	107975.234375
1822.109375	108056.390625
1821.111328	108533.015625
1820.112305	108388.796875
1819.113281	109055.367188
1818.113281	107950.375000
1817.114258	108334.117188
1816.114258	108062.460938
1815.115234	108533.562500
1814.115234	108431.960938
1813.115234	108232.914062
1812.114258	108293.843750
1811.114258	108169.843750
1810.113281	108415.632812
1809.112305	108641.351562
1808.111328	108462.398438
1807.110352	107936.414062
1806.109375	108753.773438
1805.107422	108876.914062
1804.105469	108243.804688
1803.103516	107987.703125
1802.101562	108218.179688
1801.099609	108777.828125
1800.096680	108606.546875
1799.094727	108076.257812
1798.091797	108079.664062
1797.088867	108162.835938
1796.085938	108211.078125
1795.082031	108321.593750
1794.079102	108267.640625
1793.075195	108006.960938
1792.071289	107542.148438
1791.067383	107993.820312
1790.063477	107887.664062
1789.058594	108077.750000
1788.053711	108553.953125
1787.049805	107989.906250
1786.044922	107970.882812
1785.039062	107757.843750
1784.034180	108616.750000
1783.028320	107269.820312
1782.023438	108178.218750
1781.017578	108206.382812
1780.011719	107976.078125
1779.004883	108165.765625
1777.999023	107677.164062
1776.992188	107981.093750
1775.985352	107656.593750
1774.978516	108360.171875
1773.971680	107462.242188
1772.964844	108309.554688
1771.957031	107404.507812
1770.950195	107941.367188
1769.942383	107852.875000
1768.934570	107752.000000
1767.925781	107646.203125
1766.917969	107347.039062
1765.909180	107424.789062
1764.900391	107547.125000
1763.891602	107220.867188
1762.882812	107603.351562
1761.874023	107254.890625
1760.864258	107332.562500
1759.854492	106964.453125
1758.844727	107416.023438
1757.834961	107614.921875
1756.825195	106722.218750
1755.815430	106869.187500
1754.804688	107570.335938
1753.793945	107175.335938
1752.783203	107265.250000
1751.772461	106919.890625
1750.760742	107059.265625
1749.750000	106234.476562
1748.738281	106626.015625
1747.726562	107022.351562
1746.714844	106805.796875
1745.703125	106954.929688
1744.690430	106296.343750
1743.678711	106867.773438
1742.666016	106288.437500
1741.653320	107333.625000
1740.640625	106687.765625
1739.626953	107113.117188
1738.614258	106931.359375
1737.600586	107324.437500
1736.586914	106654.351562
1735.573242	106527.007812
1734.558594	107728.625000
1733.544922	109629.898438
1732.530273	108989.445312
1731.515625	110884.882812
1730.500977	109998.046875
1729.486328	108601.593750
1728.471680	108685.851562
1727.456055	109045.867188
1726.440430	112402.054688
1725.424805	107980.835938
1724.409180	107814.085938
1723.393555	107886.078125
1722.376953	109217.710938
1721.360352	108558.843750
1720.344727	108746.250000
1719.328125	108904.070312
1718.310547	110497.632812
1717.293945	108231.367188
1716.276367	107219.328125
1715.258789	106514.796875
1714.241211	106419.796875
1713.223633	106735.046875
1712.206055	106819.320312
1711.187500	106191.460938
1710.169922	106695.617188
1709.151367	105991.898438
1708.132812	106670.148438
1707.113281	106511.414062
1706.094727	106563.718750
1705.075195	106405.046875
1704.055664	106587.328125
1703.036133	106585.632812
1702.016602	106696.710938
1700.997070	106971.976562
1699.976562	106151.648438
1698.956055	106502.859375
1697.935547	106917.640625
1696.915039	106999.148438
1695.894531	106355.710938
1694.873047	106709.070312
1693.852539	106371.921875
1692.831055	106539.117188
1691.809570	105950.046875
1690.788086	106215.117188
1689.765625	105785.320312
1688.743164	106612.898438
1687.721680	105679.382812
1686.699219	105983.429688
1685.676758	106825.187500
1684.653320	106691.390625
1683.630859	106054.210938
1682.607422	106423.921875
1681.583984	106373.312500
1680.560547	105616.835938
1679.537109	106320.976562
1678.512695	106783.148438
1677.488281	105963.515625
1676.464844	105576.179688
1675.440430	105677.054688
1674.415039	105919.398438
1673.390625	106276.312500
1672.365234	105650.156250
1671.340820	105685.078125
1670.315430	106229.570312
1669.290039	105759.757812
1668.263672	105775.140625
1667.238281	106019.570312
1666.211914	105430.648438
1665.185547	105256.054688
1664.159180	106033.835938
1663.132812	106224.460938
1662.105469	106631.703125
1661.079102	106330.414062
1660.051758	105413.460938
1659.024414	105866.859375
1657.997070	106020.828125
1656.968750	105556.859375
1655.941406	105608.671875
1654.913086	105259.226562
1653.884766	105658.742188
1652.856445	104760.031250
1651.828125	105047.679688
1650.798828	105332.789062
1649.769531	105435.578125
1648.740234	104892.179688
1647.710938	104766.710938
1646.681641	105080.789062
1645.652344	105530.718750
1644.622070	105087.195312
1643.591797	104655.960938
1642.561523	104753.859375
1641.531250	105220.484375
1640.500977	104144.210938
1639.469727	104103.898438
1638.438477	104698.898438
1637.408203	104549.390625
1636.375977	104506.593750
1635.344727	104890.343750
1634.313477	104195.671875
1633.281250	104155.367188
1632.249023	104408.164062
1631.216797	104246.734375
1630.184570	103857.750000
1629.151367	103815.101562
1628.119141	103820.867188
1627.085938	104482.468750
1626.052734	104258.234375
1625.019531	103426.859375
1623.985352	104034.953125
1622.952148	103849.601562
1621.917969	104089.867188
1620.883789	103938.414062
1619.849609	104004.539062
1618.815430	103886.976562
1617.780273	103667.968750
1616.745117	104207.593750
1615.709961	103884.734375
1614.674805	103260.125000
1613.639648	103635.335938
1612.604492	103414.132812
1611.568359	103234.031250
1610.532227	103331.515625
1609.496094	103301.078125
1608.459961	103309.250000
1607.423828	103093.101562
1606.386719	103600.476562
1605.349609	102651.382812
1604.312500	103529.882812
1603.275391	102976.406250
1602.238281	102921.945312
1601.200195	103438.515625
1600.163086	103010.601562
1599.125000	103141.601562
1598.086914	102538.093750
1597.047852	102678.757812
1596.009766	103380.242188
1594.970703	102403.953125
1593.931641	103261.648438
1592.892578	102203.906250
1591.853516	102380.570312
1590.814453	102978.046875
1589.774414	103147.281250
1588.734375	102840.421875
1587.694336	102637.023438
1586.654297	103272.468750
1585.614258	102691.796875
1584.573242	103127.593750
1583.532227	102847.406250
1582.492188	102978.000000
1581.450195	102474.617188
1580.409180	102461.171875
1579.368164	102954.203125
1578.326172	102823.078125
1577.284180	102711.179688
1576.242188	102824.843750
1575.200195	102581.054688
1574.157227	102409.296875
1573.115234	102302.335938
1572.072266	103024.898438
1571.029297	102460.046875
1569.985352	102444.187500
1568.942383	102658.359375
1567.898438	102410.078125
1566.855469	102945.132812
1565.811523	102574.750000
1564.767578	102429.570312
1563.722656	102629.171875
1562.678711	102821.507812
1561.633789	102575.835938
1560.588867	102751.359375
1559.543945	102697.164062
1558.499023	103688.210938
1557.453125	102902.085938
1556.407227	102144.929688
1555.361328	102420.757812
1554.315430	102383.375000
1553.269531	102042.507812
1552.223633	102659.859375
1551.176758	102632.000000
1550.129883	102759.390625
1549.083008	102234.804688
1548.036133	102727.507812
1546.989258	102415.570312
1545.941406	102363.890625
1544.893555	102694.023438
1543.845703	102293.968750
1542.797852	102571.515625
1541.750000	102548.445312
1540.701172	102148.609375
1539.652344	102683.507812
1538.603516	102898.796875
1537.554688	101703.078125
1536.505859	102514.171875
1535.456055	102348.164062
1534.407227	102127.421875
1533.357422	101832.921875
1532.307617	102240.984375
1531.256836	101839.429688
1530.207031	102463.937500
1529.156250	102002.984375
1528.105469	102567.742188
1527.054688	102092.648438
1526.003906	101910.296875
1524.953125	101915.882812
1523.901367	101831.101562
1522.849609	101960.312500
1521.797852	102362.820312
1520.746094	101771.796875
1519.694336	101751.242188
1518.641602	101545.390625
1517.588867	101814.656250
1516.536133	101851.085938
1515.483398	101495.726562
1514.430664	101987.992188
1513.376953	100799.617188
1512.323242	101498.289062
1511.269531	100955.781250
1510.215820	101208.179688
1509.162109	100865.148438
1508.107422	101387.804688
1507.053711	101284.328125
1505.999023	100984.125000
1504.944336	100409.093750
1503.888672	100566.500000
1502.833984	100501.132812
1501.778320	100326.820312
1500.722656	101066.789062
1499.666992	101399.187500
1498.611328	100429.273438
1497.555664	101123.843750
1496.499023	100497.500000
1495.442383	100962.257812
1494.385742	100617.703125
1493.329102	100221.226562
1492.271484	100255.335938
1491.214844	100365.093750
1490.157227	100172.179688
1489.099609	100433.187500
1488.041992	100330.140625
1486.983398	100326.367188
1485.925781	100272.976562
1484.867188	99676.320312
1483.808594	100133.179688
1482.750000	99912.187500
1481.691406	99568.515625
1480.631836	99822.140625
1479.572266	99421.953125
1478.512695	99873.710938
1477.453125	99079.671875
1476.393555	99125.617188
1475.333008	99275.312500
1474.273438	99422.593750
1473.212891	99583.953125
1472.152344	99229.070312
1471.090820	98815.382812
1470.030273	99598.796875
1468.968750	98737.593750
1467.907227	99033.171875
1466.845703	99392.218750
1465.784180	98750.476562
1464.721680	99163.585938
1463.660156	99364.710938
1462.597656	98993.921875
1461.535156	99199.703125
1460.472656	99064.312500
1459.409180	98609.093750
1458.345703	98659.617188
1457.283203	98162.304688
1456.219727	98737.093750
1455.155273	98980.281250
1454.091797	98039.039062
1453.027344	98510.156250
1451.963867	98424.375000
1450.899414	98564.085938
1449.833984	98572.250000
1448.769531	98559.273438
1447.704102	98163.679688
1446.639648	97927.812500
1445.574219	97814.046875
1444.507812	98045.195312
1443.442383	98215.265625
1442.375977	97988.921875
1441.310547	98170.656250
1440.244141	97850.625000
1439.177734	97542.414062
1438.110352	98509.210938
1437.043945	97746.421875
1435.976562	97321.257812
1434.909180	97701.984375
1433.841797	97649.328125
1432.773438	97507.710938
1431.706055	97551.078125
1430.637695	97643.585938
1429.569336	97487.992188
1428.500977	97723.187500
1427.432617	97520.843750
1426.363281	97129.109375
1425.294922	97923.140625
1424.225586	96904.851562
1423.156250	97553.695312
1422.085938	97237.007812
1421.016602	96995.218750
1419.946289	97199.757812
1418.875977	96974.406250
1417.805664	97162.523438
1416.735352	96696.718750
1415.664062	97178.992188
1414.593750	97567.710938
1413.522461	97195.429688
1412.451172	97028.632812
1411.379883	97057.859375
1410.307617	96622.882812
1409.235352	96908.718750
1408.164062	97210.765625
1407.090820	97011.445312
1406.018555	96753.929688
1404.946289	96592.046875
1403.873047	96917.218750
1402.799805	96690.125000
1401.726562	96735.640625
1400.653320	96541.257812
1399.580078	96337.632812
1398.505859	96271.421875
1397.431641	96240.156250
1396.357422	96364.812500
1395.283203	96012.429688
1394.208008	96034.718750
1393.133789	96550.093750
1392.058594	96200.179688
1390.983398	96066.625000
1389.908203	96553.804688
1388.832031	96457.414062
1387.756836	96047.335938
1386.680664	95978.945312
1385.604492	95792.101562
1384.528320	95788.804688
1383.451172	95778.539062
1382.375000	95928.476562
1381.297852	95449.265625
1380.220703	95722.210938
1379.143555	96210.859375
1378.065430	95854.812500
1376.988281	95709.984375
1375.910156	95901.492188
1374.832031	95752.054688
1373.753906	95598.039062
1372.674805	95812.632812
1371.596680	95888.085938
1370.517578	95351.781250
1369.438477	95624.210938
1368.359375	95590.773438
1367.279297	95990.429688
1366.200195	95894.421875
1365.120117	95360.890625
1364.040039	96227.921875
1362.959961	95437.632812
1361.878906	96986.914062
1360.798828	99548.914062
1359.717773	96253.453125
1358.636719	95491.460938
1357.555664	95797.960938
1356.473633	95605.007812
1355.392578	95775.007812
1354.310547	95672.242188
1353.228516	95807.500000
1352.146484	95568.468750
1351.063477	95008.476562
1349.981445	94942.859375
1348.898438	95842.359375
1347.815430	95289.531250
1346.732422	95433.914062
1345.649414	95735.164062
1344.565430	95858.640625
1343.481445	95087.046875
1342.397461	95750.281250
1341.313477	96155.000000
1340.229492	95418.343750
1339.144531	95576.328125
1338.059570	95374.718750
1336.974609	95693.945312
1335.889648	95579.921875
1334.804688	95832.187500
1333.718750	95930.054688
1332.632812	96062.421875
1331.546875	95660.625000
1330.460938	95958.710938
1329.375000	95221.078125
1328.288086	96055.242188
1327.201172	95414.468750
1326.114258	95774.476562
1325.027344	95541.023438
1323.940430	95482.390625
1322.852539	96030.679688
1321.764648	95976.578125
1320.676758	95913.296875
1319.588867	95601.882812
1318.500977	95506.523438
1317.412109	95379.039062
1316.324219	95171.218750
1315.235352	95193.070312
1314.145508	95476.601562
1313.056641	94802.953125
1311.966797	95258.546875
1310.876953	94899.492188
1309.787109	94664.429688
1308.697266	94346.890625
1307.607422	94192.265625
1306.516602	94585.640625
1305.425781	94277.437500
1304.334961	94702.734375
1303.244141	94445.023438
1302.153320	94544.804688
1301.061523	94053.570312
1299.969727	93942.679688
1298.877930	93781.453125
1297.786133	93434.835938
1296.694336	93894.054688
1295.601562	93277.492188
1294.508789	93722.828125
1293.416016	92827.421875
1292.323242	93588.312500
1291.230469	93228.367188
1290.136719	93389.859375
1289.042969	92794.609375
1287.949219	92775.546875
1286.855469	93151.828125
1285.760742	92881.367188
1284.666992	92341.453125
1283.572266	92486.914062
1282.477539	92184.742188
1281.381836	92273.093750
1280.287109	91612.679688
1279.191406	92093.648438
1278.095703	92499.140625
1277.000000	92785.851562
1275.904297	92568.328125
1274.808594	91500.195312
1273.711914	91725.343750
1272.615234	91945.851562
1271.518555	91464.210938
1270.421875	91575.281250
1269.324219	91244.265625
1268.226562	91389.500000
1267.129883	91026.742188
1266.031250	91805.062500
1264.933594	91510.656250
1263.835938	90927.234375
1262.737305	90637.640625
1261.638672	90168.359375
1260.540039	90757.265625
1259.441406	90818.179688
1258.341797	90481.031250
1257.242188	90632.929688
1256.142578	90000.351562
1255.042969	90411.421875
1253.943359	90424.593750
1252.842773	89842.382812
1251.743164	90205.539062
1250.642578	89657.640625
1249.541016	89368.859375
1248.440430	90129.273438
1247.338867	89885.906250
1246.238281	89690.289062
1245.136719	89478.859375
1244.034180	89297.000000
1242.932617	89528.101562
1241.831055	89779.539062
1240.728516	89264.328125
1239.625977	89384.203125
1238.522461	89483.617188
1237.419922	89902.593750
1236.316406	89120.304688
1235.213867	89686.468750
1234.110352	89860.507812
1233.005859	88695.843750
1231.902344	89329.703125
1230.797852	89175.390625
1229.693359	89027.921875
1228.588867	88765.062500
1227.484375	89178.929688
1226.379883	89198.953125
1225.274414	88836.664062
1224.168945	89039.937500
1223.063477	88779.562500
1221.958008	89016.679688
1220.851562	89213.015625
1219.746094	88220.468750
1218.639648	88877.843750
1217.533203	88308.195312
1216.425781	88617.445312
1215.319336	88538.125000
1214.211914	88616.898438
1213.104492	88478.898438
1211.997070	89013.601562
1210.889648	88990.671875
1209.781250	88979.031250
1208.672852	88265.773438
1207.564453	88703.117188
1206.456055	88808.789062
1205.347656	88670.906250
1204.238281	88715.671875
1203.128906	88226.234375
1202.019531	88881.765625
1200.910156	88214.468750
1199.800781	88953.109375
1198.690430	88385.132812
1197.580078	88515.453125
1196.469727	88301.242188
1195.359375	88454.031250
1194.249023	88606.757812
1193.137695	88275.617188
1192.026367	88491.312500
1190.915039	88414.500000
1189.803711	88011.593750
1188.691406	88667.945312
1187.580078	88249.398438
1186.467773	88325.515625
1185.355469	87949.875000
1184.242188	88446.203125
1183.129883	88079.656250
1182.016602	88200.656250
1180.903320	88034.156250
1179.790039	87710.531250
1178.676758	87663.156250
1177.562500	87555.187500
1176.449219	87337.296875
1175.334961	87745.476562
1174.219727	87426.664062
1173.105469	87507.210938
1171.990234	87776.093750
1170.875977	87354.304688
1169.760742	87596.203125
1168.644531	87246.320312
1167.529297	87304.390625
1166.413086	87313.156250
1165.297852	87198.703125
1164.181641	86938.710938
1163.064453	87290.125000
1161.948242	87186.921875
1160.831055	86665.171875
1159.713867	86935.867188
1158.596680	87226.593750
1157.479492	86796.828125
1156.362305	87340.226562
1155.244141	86756.281250
1154.125977	86648.812500
1153.007812	86561.500000
1151.888672	86527.851562
1150.770508	86972.460938
1149.651367	85962.328125
1148.532227	86476.117188
1147.413086	86386.664062
1146.293945	86306.164062
1145.173828	86145.320312
1144.053711	86288.117188
1142.933594	86390.695312
1141.813477	86127.257812
1140.693359	86314.593750
1139.572266	86352.398438
1138.451172	85460.164062
1137.330078	86106.867188
1136.208984	85622.984375
1135.086914	85845.890625
1133.965820	85634.117188
1132.843750	85377.859375
1131.721680	85709.835938
1130.599609	85262.093750
1129.476562	85418.031250
1128.353516	85046.195312
1127.230469	85144.226562
1126.107422	85164.312500
1124.984375	85306.789062
1123.860352	85166.632812
1122.737305	84995.375000
1121.613281	84833.078125
1120.488281	85293.492188
1119.364258	84902.187500
1118.239258	85564.703125
1117.115234	84742.304688
1115.990234	84969.062500
1114.864258	85166.843750
1113.739258	85038.015625
1112.613281	84711.570312
1111.487305	84545.109375
1110.361328	84198.882812
1109.235352	85295.601562
1108.108398	84845.046875
1106.982422	84514.468750
1105.855469	84736.429688
1104.728516	84397.117188
1103.600586	84745.414062
1102.473633	84583.593750
1101.345703	84736.640625
1100.217773	84038.484375
1099.089844	84455.281250
1097.960938	84559.500000
1096.833008	84801.031250
1095.704102	84386.867188
1094.575195	84424.601562
1093.446289	84083.710938
1092.316406	84544.289062
1091.187500	84630.656250
1090.057617	84161.562500
1088.927734	84152.820312
1087.796875	84294.500000
1086.666992	84232.656250
1085.536133	84265.914062
1084.405273	83958.679688
1083.274414	84159.960938
1082.143555	84047.335938
1081.011719	84427.500000
1079.879883	83817.789062
1078.748047	84204.468750
1077.616211	84246.492188
1076.484375	83968.343750
1075.351562	83968.445312
1074.218750	84054.617188
1073.085938	83957.601562
1071.953125	84213.632812
1070.820312	83734.976562
1069.686523	83607.179688
1068.552734	84066.000000
1067.418945	83849.992188
1066.284180	83766.312500
1065.150391	84028.695312
1064.015625	83495.484375
1062.880859	84136.750000
1061.746094	84112.546875
1060.611328	83685.312500
1059.475586	83355.117188
1058.339844	84114.812500
1057.204102	83826.476562
1056.068359	83965.187500
1054.932617	83527.359375
1053.795898	83529.664062
1052.659180	83250.429688
1051.522461	83908.125000
1050.385742	83439.828125
1049.248047	83479.507812
1048.110352	83499.390625
1046.972656	83446.742188
1045.834961	83304.031250
1044.697266	82985.632812
1043.558594	83238.382812
1042.419922	83332.937500
1041.281250	83038.843750
1040.142578	83302.406250
1039.003906	83164.250000
1037.864258	83048.070312
1036.724609	83052.601562
1035.584961	82701.781250
1034.445312	82916.906250
1033.304688	82642.968750
1032.165039	82879.945312
1031.024414	82923.937500
1029.883789	82650.140625
1028.742188	82729.210938
1027.601562	83020.742188
1026.459961	82725.171875
1025.318359	83117.328125
1024.176758	82784.609375
1023.034180	82622.765625
1021.892578	82340.593750
1020.750000	82542.140625
1019.607422	82012.851562
1018.463867	82253.750000
1017.321289	81805.617188
1016.177734	81845.281250
1015.034180	82315.625000
1013.890625	82132.218750
1012.747070	81948.867188
1011.602539	82447.328125
1010.458008	82108.875000
1009.313477	82220.492188
1008.168945	81556.796875
1007.024414	81624.804688
1005.878906	81852.148438
1004.733398	81669.062500
1003.587891	82070.890625
1002.442383	82108.187500
1001.295898	82069.125000
1000.149414	81777.062500
999.002930	81788.218750
997.856445	81864.781250
996.709961	82019.781250
995.562500	81961.132812
994.415039	82124.765625
993.267578	81578.085938
992.120117	81312.609375
990.972656	81467.546875
989.824219	81511.382812
988.675781	81809.906250
987.527344	81629.453125
986.378906	81882.140625
985.229492	81573.359375
984.080078	81155.906250
982.930664	81132.296875
981.781250	81902.445312
980.631836	80850.273438
979.481445	81333.226562
978.331055	81494.335938
977.180664	81492.398438
976.030273	81429.617188
974.879883	81030.164062
973.728516	81275.890625
972.577148	81252.265625
971.425781	81332.859375
970.273438	81912.671875
969.122070	81428.828125
967.969727	81991.046875
966.817383	81563.765625
965.665039	81743.984375
964.511719	81488.226562
963.359375	81334.476562
962.206055	81371.539062
961.052734	81681.695312
959.898438	81469.468750
958.745117	80984.312500
957.590820	81166.546875
956.436523	81179.765625
955.282227	81071.718750
954.127930	81279.804688
952.972656	81018.070312
951.817383	81167.648438
950.662109	80981.765625
949.506836	80940.898438
948.350586	81518.687500
947.195312	80472.070312
946.039062	81147.039062
944.882812	79917.109375
943.725586	80741.062500
942.569336	81020.101562
941.412109	80717.812500
940.254883	80741.835938
939.097656	80990.476562
937.939453	80556.617188
936.782227	80358.250000
935.624023	80889.609375
934.465820	80943.773438
933.306641	79845.585938
932.148438	80637.796875
930.989258	80303.679688
929.830078	80267.320312
928.670898	80315.062500
927.510742	80129.945312
926.351562	80410.492188
925.191406	80014.210938
924.031250	80117.976562
922.871094	80073.046875
921.709961	80316.765625
920.548828	79864.789062
919.387695	80170.890625
918.226562	79940.828125
917.065430	79805.562500
915.903320	79605.773438
914.741211	79814.859375
913.579102	79481.773438
912.416992	79544.539062
911.254883	79682.546875
910.091797	79786.101562
908.928711	79876.718750
907.765625	79666.406250
906.601562	79731.218750
905.438477	79316.906250
904.274414	80054.078125
903.110352	79382.140625
901.946289	78877.929688
900.781250	79297.031250
899.617188	79263.078125
898.452148	79055.312500
897.287109	79141.562500
896.121094	78830.914062
894.956055	79198.148438
893.790039	79217.835938
892.624023	78980.234375
891.458008	78592.656250
890.291016	78957.500000
889.125000	79418.640625
887.958008	78679.820312
886.791016	78928.765625
885.623047	78256.703125
884.456055	78452.093750
883.288086	78649.546875
882.120117	78737.765625
880.952148	78718.945312
879.783203	78556.765625
878.615234	78653.492188
877.446289	78784.406250
876.277344	78825.453125
875.107422	78246.429688
873.938477	78787.773438
872.768555	78238.882812
871.598633	78388.968750
870.428711	78893.656250
869.257812	78889.757812
868.087891	78695.773438
866.916992	78629.976562
865.746094	79102.210938
864.575195	78506.992188
863.403320	78477.539062
862.231445	78309.390625
861.059570	78634.117188
859.887695	78561.992188
858.715820	78404.578125
857.542969	78976.429688
856.370117	78765.695312
855.197266	78601.929688
854.024414	78314.625000
852.850586	78651.687500
851.676758	78792.640625
850.503906	78692.875000
849.329102	78542.031250
848.155273	78763.820312
846.980469	78602.367188
845.805664	78643.156250
844.630859	78864.796875
843.456055	78394.921875
842.280273	78359.140625
841.105469	78931.601562
839.929688	79250.812500
838.753906	78728.054688
837.577148	78594.453125
836.400391	78826.414062
835.224609	78915.929688
834.046875	78582.664062
832.870117	78515.015625
831.693359	78173.453125
830.515625	78519.906250
829.337891	79116.710938
828.160156	78777.335938
826.981445	78692.718750
825.803711	78803.320312
824.625000	78920.226562
823.446289	78740.187500
822.266602	79166.640625
821.087891	79096.851562
819.908203	78694.304688
818.728516	78855.617188
817.548828	78925.750000
816.368164	78983.148438
815.188477	79123.125000
814.007812	78811.992188
812.827148	78585.656250
811.645508	78619.773438
810.464844	78956.531250
809.283203	78446.734375
808.101562	78563.359375
806.919922	79073.382812
805.737305	78713.992188
804.554688	78701.507812
803.373047	78718.617188
802.189453	78923.843750
801.006836	78264.640625
799.823242	78433.945312
798.640625	78636.992188
797.457031	78172.515625
796.272461	78257.257812
795.088867	78586.890625
793.904297	78095.226562
792.719727	78241.140625
791.535156	77988.171875
790.350586	78144.585938
789.165039	78142.742188
787.979492	78434.039062
786.793945	78495.390625
785.608398	78335.351562
784.421875	77766.445312
783.236328	77996.476562
782.049805	78466.609375
780.862305	78256.125000
779.675781	77822.445312
778.488281	77473.156250
777.300781	77625.101562
776.113281	78071.695312
774.925781	77478.406250
773.737305	77525.031250
772.549805	77994.539062
771.361328	77466.781250
770.171875	77443.976562
768.983398	78003.640625
767.793945	77602.312500
766.604492	77959.937500
765.415039	77916.023438
764.225586	77390.960938
763.035156	77693.796875
761.845703	77448.304688
760.655273	77839.210938
759.463867	77681.968750
758.273438	77570.960938
757.082031	76952.070312
755.890625	77709.992188
754.699219	77351.460938
753.507812	77089.554688
752.315430	77186.375000
751.123047	77545.265625
749.930664	77495.203125
748.738281	77415.804688
747.544922	77619.359375
746.351562	77665.687500
745.158203	77705.703125
743.964844	77134.093750
742.771484	77167.906250
741.577148	77534.617188
740.382812	76965.445312
739.188477	77045.304688
737.994141	76972.375000
736.798828	77173.546875
735.603516	76855.867188
734.408203	77408.335938
733.212891	77661.578125
732.016602	77515.414062
730.821289	77308.671875
729.625000	76472.953125
728.428711	76912.140625
727.231445	77520.367188
726.035156	77157.117188
724.837891	77257.601562
723.640625	77481.242188
722.442383	77287.281250
721.245117	76907.625000
720.046875	76740.968750
718.848633	76837.250000
717.650391	77079.507812
716.451172	76921.242188
715.252930	76971.546875
714.053711	77338.726562
712.854492	76834.476562
711.654297	76784.726562
710.455078	76772.500000
709.254883	77124.843750
708.054688	77077.140625
706.853516	76952.398438
705.653320	77331.570312
704.452148	77179.757812
703.250977	77589.960938
702.049805	76978.265625
700.847656	77136.593750
699.646484	76739.460938
698.444336	77084.945312
697.242188	77683.992188
696.039062	77286.960938
694.836914	76518.007812
693.633789	77164.609375
692.430664	77252.031250
691.227539	77119.203125
690.023438	76940.726562
688.819336	76614.867188
687.615234	76768.750000
686.411133	76914.265625
685.207031	77186.335938
684.001953	77452.070312
682.796875	77182.421875
681.591797	76989.617188
680.386719	77002.203125
679.180664	77336.195312
677.974609	77421.265625
676.768555	77164.289062
675.562500	77008.960938
674.356445	77011.156250
673.149414	77226.726562
671.942383	77305.507812
670.735352	76748.500000
669.527344	76872.890625
668.320312	77088.312500
667.112305	76744.828125
665.904297	76465.617188
664.695312	76805.117188
663.487305	77101.046875
662.278320	76697.828125
661.069336	76681.429688
659.860352	77202.546875
658.650391	76747.851562
657.440430	76690.109375
656.230469	76708.828125
655.020508	76541.617188
653.810547	76828.867188
652.599609	76719.507812
651.388672	76622.578125
650.177734	76591.734375
648.966797	76662.039062
647.754883	76662.148438
646.542969	76443.554688
645.331055	75975.453125
644.119141	76260.289062
642.906250	76920.289062
641.694336	75936.953125
640.481445	76417.437500
639.267578	76592.734375
638.054688	76448.601562
636.840820	76203.570312
635.626953	75641.437500
634.413086	76010.312500
633.199219	76125.796875
631.984375	75874.820312
630.769531	75708.312500
629.554688	76085.117188
628.339844	75941.257812
627.124023	75974.351562
625.909180	76443.429688
624.693359	76427.062500
623.476562	76410.695312
622.260742	76671.812500
621.043945	76560.867188
619.827148	76786.921875
618.610352	77230.648438
617.393555	76663.687500
616.175781	77304.390625
614.958008	77838.101562
613.740234	76981.890625
612.522461	77355.367188
611.303711	77314.195312
610.084961	77024.796875
608.866211	76977.546875
607.647461	76881.085938
606.427734	76155.179688
605.208984	76684.164062
603.989258	76286.507812
602.768555	75755.789062
601.548828	75745.687500
600.328125	75729.437500
599.107422	75508.375000
597.886719	75748.140625
596.666016	75459.593750
595.444336	75107.687500
594.222656	75480.406250
593.000977	75161.367188
591.779297	75139.085938
590.556641	76016.804688
589.334961	75341.992188
588.112305	75017.070312
586.888672	75497.718750
585.666016	75610.273438
584.442383	75058.640625
583.218750	75269.304688
581.995117	75253.132812
580.770508	75684.250000
579.546875	75198.343750
578.322266	75053.570312
577.097656	75257.890625
575.872070	75388.664062
574.647461	75162.304688
573.421875	75131.875000
572.196289	74740.421875
570.969727	75166.882812
569.744141	74718.476562
568.517578	75012.265625
567.291016	75047.093750
566.064453	75018.734375
564.836914	74648.101562
563.609375	74788.890625
562.381836	75129.218750
561.154297	75086.593750
559.926758	74907.585938
558.698242	74865.015625
557.469727	74667.789062
556.241211	75459.507812
555.012695	74729.242188
553.783203	74538.242188
552.553711	74900.445312
551.324219	74556.992188
550.094727	74132.351562
548.864258	75138.687500
547.633789	74254.851562
546.403320	74212.445312
545.172852	74505.218750
543.941406	74186.570312
542.710938	74446.742188
541.479492	73874.453125
540.247070	73505.359375
539.015625	74045.546875
537.783203	74011.328125
536.550781	73689.062500
535.318359	73697.507812
534.085938	73545.750000
532.852539	73408.242188
531.619141	73197.804688
530.385742	73749.476562
529.152344	73457.992188
527.917969	73213.210938
526.683594	73466.804688
525.449219	73005.414062
524.214844	72926.882812
522.979492	73445.578125
521.744141	73235.421875
520.508789	73280.320312
519.273438	73288.773438
518.037109	73313.414062
516.801758	73631.296875
515.565430	73338.375000
514.328125	73035.460938
513.091797	73130.859375
511.854492	73106.976562
510.617188	73133.617188
509.379883	73178.429688
508.142578	73374.703125
506.904297	73045.843750
505.666016	73567.140625
504.427734	72969.875000
503.189453	73212.453125
501.950195	73460.984375
500.710938	73648.898438
499.471680	73356.648438
498.232422	73830.882812
496.992188	73452.000000
495.751953	73389.765625
494.511719	73017.140625
493.271484	73094.062500
492.030273	73350.281250
490.790039	73378.750000
489.548828	72970.148438
488.306641	73230.257812
487.065430	73421.812500
485.823242	72977.179688
484.581055	72738.000000
483.338867	73177.039062
482.095703	72734.703125
480.853516	72982.476562
479.610352	73004.906250
478.367188	73017.273438
477.123047	72816.531250
475.879883	72756.562500
474.635742	72437.375000
473.391602	72264.976562
472.146484	72484.359375
470.902344	73129.445312
469.657227	72346.554688
468.412109	72407.179688
467.166016	72871.250000
465.920898	72042.679688
464.674805	72504.625000
463.428711	72599.273438
462.182617	72511.343750
460.935547	72303.125000
459.688477	72732.585938
458.441406	72548.453125
457.194336	72129.882812
455.946289	72809.609375
454.699219	72220.843750
453.451172	72066.976562
452.202148	71877.117188
450.954102	72264.015625
449.705078	71948.054688
448.456055	71876.406250
447.207031	71590.656250
445.958008	72087.343750
444.708008	71889.679688
443.458008	71718.078125
442.208008	71860.500000
440.957031	71589.000000
439.707031	71491.507812
438.456055	71216.171875
437.205078	71122.773438
435.953125	71125.304688
434.702148	71135.828125
433.450195	71407.953125
432.198242	71847.703125
430.945312	71528.671875
429.693359	71094.000000
428.440430	71238.195312
427.187500	71446.187500
425.934570	71133.445312
424.680664	71305.468750
423.426758	71282.007812
422.172852	71485.828125
420.918945	72022.453125
419.664062	72343.640625
418.410156	72873.914062
417.155273	73164.921875
415.899414	73981.656250
414.644531	74557.117188
413.388672	74632.593750
412.132812	74779.710938
410.876953	74240.109375
409.620117	73716.632812
408.364258	73551.468750
407.107422	72216.726562
405.849609	71976.328125
404.592773	71714.140625
403.334961	71533.562500
402.077148	70703.085938
400.819336	71154.710938
399.561523	70785.578125
398.302734	70927.109375
397.043945	70965.312500
395.785156	70090.039062
394.525391	70164.109375
393.266602	69960.250000
392.006836	69669.140625
390.747070	69987.304688
389.486328	70251.781250
388.226562	70295.984375
386.965820	70268.781250
385.705078	69753.812500
384.443359	69441.242188
383.182617	70256.562500
381.920898	69607.132812
380.659180	69544.398438
379.396484	70020.484375
378.134766	69575.453125
376.872070	69182.070312
375.609375	69333.265625
374.346680	69432.937500
373.083008	69831.398438
371.819336	69365.039062
370.555664	68997.765625
369.291992	69487.054688
368.027344	69541.101562
366.762695	69351.937500
365.498047	68860.398438
364.233398	68892.789062
362.968750	68901.445312
361.703125	68726.359375
360.437500	68646.156250
359.170898	68435.632812
357.905273	68193.593750
356.638672	68699.843750
355.372070	68374.945312
354.105469	67925.835938
352.837891	67920.828125
351.571289	67838.882812
350.303711	67991.671875
349.035156	68083.257812
347.767578	68036.812500
346.499023	67471.968750
345.230469	67735.054688
343.961914	67889.664062
342.692383	67457.148438
341.423828	67783.109375
340.154297	67218.828125
338.883789	67251.335938
337.614258	67709.031250
336.343750	67668.601562
335.073242	67352.703125
333.802734	67335.960938
332.532227	67199.242188
331.260742	67339.859375
329.989258	67474.523438
328.717773	67082.273438
327.445312	67739.757812
326.173828	66874.000000
324.901367	66877.000000
323.627930	67096.078125
322.355469	66806.382812
321.082031	67086.257812
319.808594	67532.898438
318.535156	67164.765625
317.261719	67063.671875
315.987305	67527.710938
314.712891	67363.804688
313.438477	67551.046875
312.164062	67718.601562
310.888672	67727.281250
309.613281	67881.007812
308.337891	68299.273438
307.061523	69034.812500
305.786133	69358.648438
304.509766	70158.343750
303.233398	70285.984375
301.956055	72081.843750
300.678711	72150.335938
299.402344	72355.812500
298.124023	73046.531250
296.846680	74304.382812
295.568359	75731.937500
294.290039	76859.703125
293.011719	76266.250000
291.733398	74222.351562
290.454102	71964.210938
289.174805	69701.070312
287.895508	68075.773438
286.616211	67177.820312
285.335938	67305.648438
284.055664	66330.070312
282.775391	65948.406250
281.494141	65869.468750
280.213867	65622.703125
278.932617	65301.875000
277.651367	65244.550781
276.369141	65068.257812
275.087891	64539.035156
273.805664	64616.421875
272.523438	64418.894531
271.240234	64281.863281
269.958008	64468.371094
268.674805	64257.339844
267.390625	64091.187500
266.107422	63636.843750
264.823242	63903.160156
263.539062	63672.914062
262.254883	63798.964844
260.970703	63687.535156
259.685547	63737.644531
258.400391	63458.957031
257.115234	63721.093750
255.830078	63627.253906
254.543945	63650.101562
253.257812	63688.492188
251.971680	63388.683594
250.684570	63689.429688
249.398438	63788.007812
248.111328	64146.828125
246.824219	64068.546875
245.536133	63520.402344
244.248047	63842.175781
242.960938	63362.210938
241.671875	63421.906250
240.383789	63215.769531
239.094727	63108.640625
237.805664	62718.382812
236.516602	62896.429688
235.227539	63235.316406
233.937500	63521.738281
232.647461	64226.648438
231.357422	65239.367188
230.066406	67042.093750
228.775391	69090.101562
227.485352	70672.570312
226.193359	69452.851562
224.902344	66928.890625
223.610352	64165.902344
222.318359	63251.910156
221.026367	62535.601562
219.733398	61974.304688
218.441406	61894.761719
217.148438	61759.175781
215.854492	61182.875000
214.561523	60916.039062
213.267578	60867.667969
211.973633	60606.785156
210.679688	60577.804688
209.384766	60230.160156
208.090820	60185.804688
206.795898	60014.046875
205.500000	59788.308594
204.205078	59913.882812
202.909180	59665.085938
201.613281	59983.539062
200.317383	59395.363281
199.020508	59464.980469
197.723633	59276.218750
196.426758	59257.156250
195.129883	58931.664062
193.832031	58953.136719
192.534180	58872.488281
191.236328	58911.289062
189.938477	58665.058594
188.639648	58261.035156
187.341797	58792.734375
186.042969	58367.664062
184.743164	58385.343750
183.444336	57779.660156
182.144531	58178.304688
180.844727	58013.300781
179.543945	58115.628906
178.244141	57744.988281
176.943359	58325.921875
175.642578	58049.542969
174.340820	57967.320312
173.040039	57948.523438
171.738281	57760.714844
170.435547	57786.121094
169.133789	57800.000000
167.831055	57474.113281
166.528320	57346.019531
165.225586	57453.984375
163.922852	57318.265625
162.619141	57056.007812
161.315430	57326.957031
160.011719	57131.898438
158.708008	56785.468750
157.403320	57012.226562
156.098633	56679.363281
154.793945	56312.140625
153.488281	56194.066406
152.182617	56229.242188
150.876953	56250.996094
149.571289	55874.554688
148.265625	56007.378906
146.958984	55401.484375
145.652344	55528.601562
144.345703	55473.941406
143.038086	55740.605469
141.730469	55561.628906
140.422852	55325.367188
139.115234	55127.417969
137.806641	55004.078125
136.498047	55064.207031
135.189453	54341.074219
133.880859	54571.289062
132.571289	53814.152344
131.262695	53490.699219
129.952148	52623.343750
128.642578	52242.984375
127.332031	51330.398438
126.021484	50372.378906
124.710938	49712.277344
123.400391	48802.605469
122.088867	47609.187500
120.777344	47030.054688
119.465820	45505.804688
