#Wave		#Intensity
1999.057617	59891.757812
1998.089844	59519.757812
1997.122070	60129.273438
1996.154297	60103.300781
1995.186523	60056.675781
1994.217773	59883.574219
1993.249023	60025.417969
1992.280273	60324.628906
1991.311523	59893.546875
1990.341797	60368.089844
1989.373047	59772.070312
1988.403320	59694.601562
1987.433594	59617.152344
1986.463867	60511.609375
1985.494141	59895.351562
1984.524414	60356.500000
1983.553711	60732.460938
1982.583008	60399.855469
1981.613281	59577.980469
1980.641602	60255.175781
1979.670898	60391.425781
1978.700195	60280.492188
1977.728516	59883.894531
1976.756836	60413.867188
1975.785156	60256.667969
1974.813477	60336.195312
1973.841797	60639.460938
1972.869141	60075.976562
1971.897461	60708.289062
1970.924805	60001.027344
1969.952148	60563.730469
1968.979492	60694.500000
1968.005859	60727.585938
1967.033203	60781.210938
1966.059570	60693.546875
1965.085938	60287.472656
1964.112305	60613.304688
1963.138672	60579.617188
1962.165039	60766.675781
1961.190430	60691.910156
1960.215820	60445.257812
1959.242188	60678.414062
1958.266602	60657.558594
1957.291992	60977.781250
1956.317383	60467.148438
1955.341797	60556.566406
1954.366211	60743.351562
1953.390625	60912.128906
1952.415039	60911.738281
1951.439453	60616.738281
1950.463867	60944.246094
1949.487305	61074.449219
1948.510742	60459.515625
1947.534180	60687.031250
1946.557617	60435.828125
1945.580078	61011.300781
1944.603516	60353.304688
1943.625977	60805.789062
1942.648438	61109.765625
1941.670898	60940.535156
1940.693359	61098.636719
1939.715820	60990.812500
1938.737305	60814.015625
1937.758789	60803.382812
1936.780273	60859.187500
1935.801758	61086.125000
1934.823242	60595.261719
1933.844727	61169.468750
1932.865234	61069.410156
1931.885742	60742.179688
1930.906250	60787.710938
1929.926758	61004.203125
1928.947266	61225.722656
1927.966797	61345.117188
1926.986328	61201.757812
1926.006836	60334.199219
1925.026367	61096.207031
1924.044922	60828.042969
1923.064453	60819.953125
1922.083008	61013.179688
1921.102539	60910.781250
1920.121094	60642.828125
1919.139648	60894.562500
1918.157227	60978.132812
1917.175781	61262.812500
1916.193359	60944.062500
1915.211914	60765.410156
1914.229492	60688.609375
1913.246094	61026.566406
1912.263672	60965.007812
1911.281250	61000.117188
1910.297852	60872.460938
1909.314453	60978.761719
1908.331055	61135.867188
1907.347656	61148.039062
1906.363281	60885.750000
1905.379883	60722.640625
1904.395508	61001.609375
1903.411133	61277.937500
1902.426758	61069.128906
1901.442383	60926.402344
1900.458008	61174.667969
1899.472656	60757.851562
1898.487305	60615.250000
1897.501953	61244.019531
1896.516602	61651.863281
1895.531250	60677.246094
1894.544922	61265.089844
1893.559570	61099.695312
1892.573242	61370.375000
1891.586914	60758.929688
1890.599609	61021.968750
1889.613281	61203.835938
1888.625977	61051.246094
1887.639648	61354.617188
1886.652344	61128.613281
1885.665039	60955.855469
1884.676758	61395.773438
1883.689453	61033.199219
1882.701172	61366.660156
1881.713867	61113.007812
1880.725586	60970.750000
1879.736328	61091.582031
1878.748047	61040.410156
1877.759766	60890.644531
1876.770508	60821.824219
1875.781250	60881.929688
1874.791992	61189.660156
1873.802734	61098.078125
1872.812500	61044.417969
1871.823242	61422.667969
1870.833008	60937.144531
1869.842773	60620.953125
1868.852539	61236.363281
1867.862305	60882.367188
1866.871094	61265.351562
1865.880859	60977.066406
1864.889648	61145.472656
1863.898438	61308.773438
1862.907227	60907.148438
1861.915039	61544.425781
1860.923828	61271.460938
1859.931641	61119.562500
1858.939453	60677.925781
1857.947266	60994.812500
1856.955078	61271.277344
1855.961914	61716.394531
1854.969727	61340.421875
1853.976562	61145.859375
1852.983398	61449.789062
1851.990234	61469.199219
1850.997070	61128.757812
1850.002930	61369.621094
1849.008789	61205.398438
1848.014648	61348.070312
1847.020508	61634.023438
1846.026367	61977.703125
1845.032227	61846.156250
1844.037109	61729.734375
1843.042969	61392.214844
1842.047852	61213.097656
1841.051758	61631.894531
1840.056641	61729.066406
1839.061523	61062.820312
1838.065430	61596.906250
1837.069336	61611.187500
1836.073242	61469.851562
1835.077148	61822.906250
1834.081055	61822.078125
1833.083984	61816.226562
1832.086914	61745.171875
1831.090820	61616.460938
1830.092773	61718.453125
1829.095703	61760.246094
1828.098633	61766.933594
1827.100586	61868.835938
1826.102539	62008.281250
1825.104492	61849.589844
1824.106445	62442.300781
1823.108398	61880.425781
1822.109375	60948.210938
1821.111328	61678.433594
1820.112305	61492.394531
1819.113281	61804.378906
1818.113281	62358.929688
1817.114258	61947.734375
1816.114258	61716.750000
1815.115234	61928.441406
1814.115234	61775.042969
1813.115234	62084.132812
1812.114258	62018.226562
1811.114258	61869.882812
1810.113281	62321.187500
1809.112305	62145.363281
1808.111328	62076.984375
1807.110352	61853.812500
1806.109375	61733.078125
1805.107422	61782.121094
1804.105469	61955.929688
1803.103516	61912.585938
1802.101562	61934.121094
1801.099609	62105.308594
1800.096680	62186.648438
1799.094727	62210.613281
1798.091797	61873.066406
1797.088867	62253.515625
1796.085938	61936.015625
1795.082031	61755.667969
1794.079102	62185.757812
1793.075195	61435.015625
1792.071289	62218.644531
1791.067383	62294.835938
1790.063477	62139.468750
1789.058594	61710.351562
1788.053711	61913.507812
1787.049805	62121.566406
1786.044922	61809.597656
1785.039062	61860.894531
1784.034180	61907.195312
1783.028320	62207.097656
1782.023438	61768.535156
1781.017578	61864.531250
1780.011719	62176.703125
1779.004883	61683.707031
1777.999023	61720.035156
1776.992188	62059.382812
1775.985352	61683.378906
1774.978516	61963.015625
1773.971680	62063.808594
1772.964844	61658.210938
1771.957031	61659.750000
1770.950195	61780.386719
1769.942383	61791.820312
1768.934570	61942.148438
1767.925781	61782.429688
1766.917969	61821.125000
1765.909180	61852.367188
1764.900391	61496.929688
1763.891602	61929.675781
1762.882812	61579.304688
1761.874023	61603.125000
1760.864258	61849.851562
1759.854492	61809.222656
1758.844727	61936.976562
1757.834961	61490.351562
1756.825195	61915.121094
1755.815430	62067.527344
1754.804688	61314.300781
1753.793945	61741.343750
1752.783203	61122.000000
1751.772461	61689.878906
1750.760742	61585.039062
1749.750000	61771.933594
1748.738281	61763.500000
1747.726562	61856.390625
1746.714844	61343.906250
1745.703125	61930.894531
1744.690430	61403.753906
1743.678711	61820.128906
1742.666016	60646.308594
1741.653320	61284.835938
1740.640625	61607.210938
1739.626953	61566.722656
1738.614258	61627.398438
1737.600586	61540.042969
1736.586914	61901.601562
1735.573242	61602.148438
1734.558594	61608.527344
1733.544922	61402.902344
1732.530273	61709.996094
1731.515625	61561.097656
1730.500977	62148.917969
1729.486328	61753.656250
1728.471680	61370.843750
1727.456055	61598.859375
1726.440430	61432.867188
1725.424805	61498.320312
1724.409180	61871.394531
1723.393555	61402.761719
1722.376953	61711.750000
1721.360352	61882.871094
1720.344727	61461.207031
1719.328125	61794.601562
1718.310547	61643.539062
1717.293945	61900.578125
1716.276367	61776.578125
1715.258789	61711.593750
1714.241211	61948.824219
1713.223633	61657.839844
1712.206055	61477.476562
1711.187500	61699.878906
1710.169922	61939.382812
1709.151367	61680.507812
1708.132812	61792.308594
1707.113281	62213.246094
1706.094727	61956.906250
1705.075195	61408.753906
1704.055664	62163.066406
1703.036133	61730.316406
1702.016602	61729.199219
1700.997070	62078.601562
1699.976562	62025.953125
1698.956055	61644.980469
1697.935547	62084.847656
1696.915039	61733.386719
1695.894531	61609.804688
1694.873047	61390.773438
1693.852539	61377.457031
1692.831055	61868.371094
1691.809570	61913.707031
1690.788086	61530.828125
1689.765625	61987.195312
1688.743164	61846.585938
1687.721680	62207.355469
1686.699219	62242.800781
1685.676758	61532.597656
1684.653320	62010.550781
1683.630859	62163.304688
1682.607422	61761.351562
1681.583984	61757.742188
1680.560547	61756.574219
1679.537109	61699.234375
1678.512695	61698.070312
1677.488281	62024.027344
1676.464844	61939.816406
1675.440430	62146.031250
1674.415039	61722.675781
1673.390625	61743.453125
1672.365234	61632.507812
1671.340820	61850.816406
1670.315430	61978.832031
1669.290039	61533.925781
1668.263672	61527.894531
1667.238281	61794.792969
1666.211914	61591.359375
1665.185547	61772.886719
1664.159180	62312.382812
1663.132812	61646.273438
1662.105469	61396.742188
1661.079102	61765.605469
1660.051758	62183.015625
1659.024414	62060.050781
1657.997070	61275.347656
1656.968750	61716.941406
1655.941406	61516.285156
1654.913086	61826.363281
1653.884766	61438.546875
1652.856445	61554.050781
1651.828125	60952.539062
1650.798828	60825.085938
1649.769531	61251.617188
1648.740234	61342.773438
1647.710938	61776.339844
1646.681641	61391.425781
1645.652344	61402.382812
1644.622070	61342.937500
1643.591797	61065.082031
1642.561523	61245.941406
1641.531250	61344.246094
1640.500977	61146.582031
1639.469727	61256.988281
1638.438477	60984.234375
1637.408203	61261.910156
1636.375977	61352.839844
1635.344727	61148.066406
1634.313477	60839.167969
1633.281250	61148.156250
1632.249023	61348.031250
1631.216797	60952.070312
1630.184570	61023.574219
1629.151367	61346.824219
1628.119141	60992.214844
1627.085938	61107.226562
1626.052734	61118.148438
1625.019531	60596.835938
1623.985352	61127.878906
1622.952148	61211.335938
1621.917969	61292.343750
1620.883789	60839.046875
1619.849609	61077.199219
1618.815430	61450.589844
1617.780273	60688.226562
1616.745117	61291.050781
1615.709961	60306.769531
1614.674805	60890.121094
1613.639648	60934.832031
1612.604492	60827.437500
1611.568359	60797.316406
1610.532227	61025.417969
1609.496094	60802.242188
1608.459961	60897.574219
1607.423828	60621.433594
1606.386719	60374.328125
1605.349609	60935.015625
1604.312500	60620.441406
1603.275391	61067.597656
1602.238281	60261.507812
1601.200195	60874.812500
1600.163086	60866.394531
1599.125000	60357.007812
1598.086914	60519.652344
1597.047852	60446.289062
1596.009766	60705.140625
1594.970703	60511.425781
1593.931641	60257.617188
1592.892578	61389.710938
1591.853516	60851.980469
1590.814453	60797.863281
1589.774414	60866.394531
1588.734375	60821.902344
1587.694336	60912.035156
1586.654297	60497.429688
1585.614258	60606.808594
1584.573242	60648.875000
1583.532227	60633.273438
1582.492188	60608.066406
1581.450195	60592.476562
1580.409180	60905.792969
1579.368164	60906.949219
1578.326172	61023.300781
1577.284180	60918.851562
1576.242188	60447.378906
1575.200195	60748.437500
1574.157227	60363.496094
1573.115234	61050.503906
1572.072266	61262.585938
1571.029297	60412.738281
1569.985352	60876.488281
1568.942383	60673.953125
1567.898438	60320.562500
1566.855469	60724.191406
1565.811523	60476.285156
1564.767578	60645.085938
1563.722656	61125.042969
1562.678711	61202.710938
1561.633789	60787.367188
1560.588867	60881.808594
1559.543945	60882.917969
1558.499023	60766.824219
1557.453125	60842.082031
1556.407227	60690.167969
1555.361328	60650.664062
1554.315430	61299.523438
1553.269531	60688.777344
1552.223633	61074.574219
1551.176758	60722.078125
1550.129883	60675.425781
1549.083008	60726.691406
1548.036133	61085.933594
1546.989258	60819.613281
1545.941406	60722.843750
1544.893555	61067.570312
1543.845703	60932.609375
1542.797852	60633.101562
1541.750000	60624.667969
1540.701172	61195.691406
1539.652344	61311.132812
1538.603516	61097.574219
1537.554688	60829.273438
1536.505859	60968.539062
1535.456055	60702.734375
1534.407227	60787.183594
1533.357422	60483.394531
1532.307617	60751.195312
1531.256836	61156.984375
1530.207031	60810.441406
1529.156250	60868.601562
1528.105469	60246.207031
1527.054688	60961.062500
1526.003906	60707.554688
1524.953125	60844.164062
1523.901367	60533.699219
1522.849609	61060.171875
1521.797852	60870.996094
1520.746094	60477.503906
1519.694336	60625.902344
1518.641602	60641.203125
1517.588867	60587.617188
1516.536133	60612.414062
1515.483398	60682.316406
1514.430664	60578.890625
1513.376953	60321.214844
1512.323242	60225.003906
1511.269531	60477.613281
1510.215820	60924.652344
1509.162109	60138.171875
1508.107422	60362.195312
1507.053711	60045.546875
1505.999023	60525.523438
1504.944336	60299.019531
1503.888672	60295.347656
1502.833984	60604.425781
1501.778320	60150.609375
1500.722656	60488.019531
1499.666992	60403.792969
1498.611328	59992.867188
1497.555664	60644.953125
1496.499023	60061.347656
1495.442383	59802.140625
1494.385742	59994.914062
1493.329102	60514.054688
1492.271484	60254.898438
1491.214844	59986.371094
1490.157227	60186.058594
1489.099609	59813.628906
1488.041992	60010.902344
1486.983398	59811.128906
1485.925781	60041.406250
1484.867188	59917.281250
1483.808594	60024.644531
1482.750000	59983.203125
1481.691406	59835.539062
1480.631836	60110.441406
1479.572266	59797.601562
1478.512695	59819.933594
1477.453125	59714.859375
1476.393555	60112.230469
1475.333008	59771.304688
1474.273438	59729.949219
1473.212891	59396.281250
1472.152344	59647.277344
1471.090820	59971.238281
1470.030273	59376.160156
1468.968750	60074.613281
1467.907227	59531.546875
1466.845703	59664.535156
1465.784180	59399.558594
1464.721680	59822.070312
1463.660156	59599.523438
1462.597656	59581.789062
1461.535156	59764.046875
1460.472656	59360.484375
1459.409180	59846.117188
1458.345703	59153.441406
1457.283203	59243.941406
1456.219727	59813.949219
1455.155273	59290.867188
1454.091797	59338.984375
1453.027344	59690.164062
1451.963867	59284.828125
1450.899414	59184.953125
1449.833984	59352.808594
1448.769531	59323.382812
1447.704102	58909.003906
1446.639648	59457.011719
1445.574219	59185.886719
1444.507812	59545.953125
1443.442383	59131.824219
1442.375977	59186.882812
1441.310547	59452.957031
1440.244141	59625.160156
1439.177734	59091.753906
1438.110352	59465.500000
1437.043945	59297.839844
1435.976562	59673.753906
1434.909180	59342.152344
1433.841797	59148.835938
1432.773438	59281.054688
1431.706055	58664.085938
1430.637695	59404.898438
1429.569336	58797.488281
1428.500977	59105.144531
1427.432617	58736.613281
1426.363281	58878.101562
1425.294922	58954.058594
1424.225586	59060.382812
1423.156250	59126.921875
1422.085938	58735.335938
1421.016602	58797.230469
1419.946289	59305.359375
1418.875977	58778.453125
1417.805664	59167.285156
1416.735352	59137.976562
1415.664062	59143.699219
1414.593750	59098.062500
1413.522461	58524.976562
1412.451172	58759.480469
1411.379883	58639.269531
1410.307617	58509.773438
1409.235352	58893.406250
1408.164062	58812.871094
1407.090820	58788.316406
1406.018555	58665.867188
1404.946289	58534.136719
1403.873047	58481.675781
1402.799805	58303.425781
1401.726562	59187.398438
1400.653320	58221.921875
1399.580078	58521.140625
1398.505859	58634.007812
1397.431641	58905.109375
1396.357422	58650.164062
1395.283203	59004.925781
1394.208008	58640.707031
1393.133789	58306.859375
1392.058594	58233.585938
1390.983398	58278.914062
1389.908203	58098.730469
1388.832031	58574.058594
1387.756836	58700.628906
1386.680664	58357.820312
1385.604492	58210.265625
1384.528320	58299.664062
1383.451172	58449.410156
1382.375000	58169.566406
1381.297852	58358.738281
1380.220703	58287.894531
1379.143555	58722.945312
1378.065430	58552.292969
1376.988281	58379.378906
1375.910156	58925.496094
1374.832031	58518.367188
1373.753906	58227.304688
1372.674805	58339.679688
1371.596680	58097.417969
1370.517578	58172.695312
1369.438477	58498.152344
1368.359375	58413.496094
1367.279297	57962.953125
1366.200195	58040.507812
1365.120117	57967.550781
1364.040039	58170.058594
1362.959961	58367.867188
1361.878906	58042.671875
1360.798828	57858.714844
1359.717773	58320.144531
1358.636719	58217.136719
1357.555664	58363.878906
1356.473633	57881.765625
1355.392578	57857.468750
1354.310547	58031.917969
1353.228516	57947.527344
1352.146484	58193.503906
1351.063477	58132.207031
1349.981445	57678.351562
1348.898438	58404.476562
1347.815430	58396.261719
1346.732422	58115.699219
1345.649414	58292.136719
1344.565430	57956.316406
1343.481445	58564.082031
1342.397461	58172.976562
1341.313477	58005.687500
1340.229492	57644.789062
1339.144531	58058.531250
1338.059570	57960.484375
1336.974609	57924.687500
1335.889648	58255.210938
1334.804688	58053.519531
1333.718750	58257.230469
1332.632812	58230.601562
1331.546875	57727.429688
1330.460938	57891.953125
1329.375000	57865.398438
1328.288086	57965.402344
1327.201172	58053.867188
1326.114258	57983.589844
1325.027344	57876.539062
1323.940430	58162.703125
1322.852539	58260.253906
1321.764648	57523.429688
1320.676758	57742.851562
1319.588867	57975.976562
1318.500977	57997.671875
1317.412109	57720.773438
1316.324219	57806.800781
1315.235352	57385.386719
1314.145508	57820.363281
1313.056641	57598.769531
1311.966797	57622.792969
1310.876953	57738.574219
1309.787109	57744.203125
1308.697266	57483.785156
1307.607422	57498.625000
1306.516602	57657.898438
1305.425781	57567.253906
1304.334961	57531.644531
1303.244141	57450.218750
1302.153320	57675.812500
1301.061523	56939.277344
1299.969727	57393.894531
1298.877930	57046.929688
1297.786133	57624.980469
1296.694336	57319.296875
1295.601562	56874.121094
1294.508789	57161.292969
1293.416016	57290.511719
1292.323242	57174.941406
1291.230469	57041.113281
1290.136719	56488.914062
1289.042969	56997.632812
1287.949219	56646.769531
1286.855469	57315.234375
1285.760742	56909.601562
1284.666992	56853.625000
1283.572266	56818.218750
1282.477539	56702.898438
1281.381836	56736.023438
1280.287109	56664.128906
1279.191406	56742.890625
1278.095703	56684.707031
1277.000000	56720.082031
1275.904297	56296.945312
1274.808594	56261.671875
1273.711914	56552.484375
1272.615234	56635.726562
1271.518555	56789.597656
1270.421875	56268.820312
1269.324219	56591.312500
1268.226562	56485.386719
1267.129883	56163.109375
1266.031250	56394.343750
1264.933594	56329.488281
1263.835938	56458.160156
1262.737305	56152.042969
1261.638672	56105.464844
1260.540039	56261.406250
1259.441406	56506.003906
1258.341797	56238.757812
1257.242188	56196.734375
1256.142578	55850.058594
1255.042969	56012.710938
1253.943359	55961.652344
1252.842773	56017.417969
1251.743164	55786.886719
1250.642578	55742.707031
1249.541016	55671.285156
1248.440430	55790.632812
1247.338867	55796.417969
1246.238281	56056.433594
1245.136719	55748.964844
1244.034180	55879.546875
1242.932617	55873.960938
1241.831055	55593.906250
1240.728516	55590.632812
1239.625977	55843.582031
1238.522461	55606.753906
1237.419922	55202.273438
1236.316406	55459.683594
1235.213867	55358.996094
1234.110352	55593.625000
1233.005859	55658.292969
1231.902344	55698.019531
1230.797852	55570.183594
1229.693359	55548.785156
1228.588867	55482.125000
1227.484375	55157.511719
1226.379883	55638.480469
1225.274414	55164.648438
1224.168945	56020.886719
1223.063477	55562.980469
1221.958008	56093.257812
1220.851562	55427.535156
1219.746094	55473.980469
1218.639648	55000.679688
1217.533203	55433.515625
1216.425781	55168.207031
1215.319336	55359.195312
1214.211914	55453.019531
1213.104492	55591.957031
1211.997070	55518.664062
1210.889648	55531.152344
1209.781250	55507.535156
1208.672852	55641.839844
1207.564453	55478.359375
1206.456055	55637.421875
1205.347656	55568.695312
1204.238281	55414.328125
1203.128906	55496.675781
1202.019531	55560.960938
1200.910156	55787.449219
1199.800781	55536.277344
1198.690430	55598.261719
1197.580078	55799.839844
1196.469727	55366.421875
1195.359375	55752.554688
1194.249023	55443.085938
1193.137695	55304.746094
1192.026367	55575.929688
1190.915039	55442.109375
1189.803711	55245.363281
1188.691406	55419.710938
1187.580078	55470.339844
1186.467773	55568.152344
1185.355469	55272.632812
1184.242188	55565.929688
1183.129883	55692.871094
1182.016602	55348.062500
1180.903320	55358.210938
1179.790039	55348.148438
1178.676758	55237.058594
1177.562500	55862.222656
1176.449219	55540.128906
1175.334961	55141.863281
1174.219727	55611.902344
1173.105469	55424.597656
1171.990234	55412.273438
1170.875977	54987.406250
1169.760742	55690.257812
1168.644531	55368.589844
1167.529297	55510.894531
1166.413086	55314.835938
1165.297852	55042.683594
1164.181641	55301.425781
1163.064453	55685.468750
1161.948242	55335.031250
1160.831055	55302.574219
1159.713867	55317.125000
1158.596680	55063.156250
1157.479492	54936.796875
1156.362305	55154.949219
1155.244141	54702.105469
1154.125977	54953.753906
1153.007812	55241.078125
1151.888672	54884.570312
1150.770508	54458.910156
1149.651367	54895.863281
1148.532227	54653.535156
1147.413086	54922.773438
1146.293945	54631.394531
1145.173828	54143.636719
1144.053711	54399.421875
1142.933594	54797.949219
1141.813477	55165.089844
1140.693359	54885.078125
1139.572266	54199.175781
1138.451172	54896.300781
1137.330078	54096.917969
1136.208984	54610.988281
1135.086914	54696.882812
1133.965820	54470.734375
1132.843750	54708.140625
1131.721680	54629.105469
1130.599609	54730.519531
1129.476562	54448.843750
1128.353516	54630.406250
1127.230469	54224.175781
1126.107422	54430.195312
1124.984375	54625.007812
1123.860352	54764.121094
1122.737305	54422.667969
1121.613281	54354.914062
1120.488281	54485.097656
1119.364258	54561.871094
1118.239258	53985.058594
1117.115234	54081.894531
1115.990234	54698.679688
1114.864258	54082.156250
1113.739258	54056.742188
1112.613281	54406.671875
1111.487305	54558.843750
1110.361328	54044.914062
1109.235352	54379.109375
1108.108398	54074.015625
1106.982422	54274.941406
1105.855469	54253.941406
1104.728516	54219.640625
1103.600586	54163.167969
1102.473633	54062.371094
1101.345703	54176.648438
1100.217773	54348.507812
1099.089844	54061.570312
1097.960938	54135.894531
1096.833008	54008.597656
1095.704102	54085.117188
1094.575195	53944.582031
1093.446289	53945.800781
1092.316406	53761.066406
1091.187500	53740.179688
1090.057617	54020.246094
1088.927734	54224.984375
1087.796875	54593.339844
1086.666992	54300.273438
1085.536133	54471.671875
1084.405273	53831.628906
1083.274414	53541.066406
1082.143555	54565.574219
1081.011719	54082.742188
1079.879883	53986.695312
1078.748047	54014.378906
1077.616211	54154.675781
1076.484375	53935.015625
1075.351562	54187.859375
1074.218750	53637.187500
1073.085938	54081.980469
1071.953125	54151.519531
1070.820312	53929.843750
1069.686523	53582.523438
1068.552734	54236.484375
1067.418945	53816.476562
1066.284180	53921.257812
1065.150391	53906.988281
1064.015625	53872.886719
1062.880859	54085.550781
1061.746094	53659.332031
1060.611328	53744.214844
1059.475586	54276.062500
1058.339844	53990.937500
1057.204102	54256.199219
1056.068359	53940.367188
1054.932617	54051.511719
1053.795898	53949.222656
1052.659180	54139.503906
1051.522461	53560.015625
1050.385742	53543.617188
1049.248047	53771.234375
1048.110352	54203.171875
1046.972656	53949.320312
1045.834961	53724.125000
1044.697266	53905.402344
1043.558594	53713.234375
1042.419922	53806.605469
1041.281250	54185.355469
1040.142578	54061.285156
1039.003906	53818.742188
1037.864258	53912.015625
1036.724609	53641.066406
1035.584961	53714.589844
1034.445312	53807.824219
1033.304688	53569.925781
1032.165039	53755.222656
1031.024414	53677.421875
1029.883789	53424.328125
1028.742188	53679.660156
1027.601562	53575.621094
1026.459961	53760.738281
1025.318359	53759.640625
1024.176758	53456.394531
1023.034180	53391.867188
1021.892578	53506.832031
1020.750000	53759.617188
1019.607422	53590.042969
1018.463867	53435.843750
1017.321289	53684.117188
1016.177734	53407.496094
1015.034180	53751.878906
1013.890625	53842.570312
1012.747070	53629.445312
1011.602539	54052.253906
1010.458008	53356.347656
1009.313477	53488.535156
1008.168945	53323.667969
1007.024414	53414.324219
1005.878906	53950.289062
1004.733398	53471.113281
1003.587891	53240.890625
1002.442383	53471.125000
1001.295898	53666.371094
1000.149414	53207.218750
999.002930	53705.546875
997.856445	53144.082031
996.709961	53537.601562
995.562500	53320.722656
994.415039	53132.246094
993.267578	53468.898438
992.120117	53511.359375
990.972656	53377.394531
989.824219	53426.382812
988.675781	53344.726562
987.527344	53639.660156
986.378906	53662.453125
985.229492	53271.816406
984.080078	53301.191406
982.930664	53556.757812
981.781250	53331.625000
980.631836	53397.921875
979.481445	53485.937500
978.331055	53645.636719
977.180664	53318.511719
976.030273	53339.128906
974.879883	53720.332031
973.728516	53423.773438
972.577148	53444.351562
971.425781	53241.300781
970.273438	53383.460938
969.122070	53558.121094
967.969727	53405.058594
966.817383	53406.085938
965.665039	53611.003906
964.511719	53507.894531
963.359375	53446.015625
962.206055	53351.636719
961.052734	52869.312500
959.898438	53529.214844
958.745117	53417.535156
957.590820	53546.351562
956.436523	53417.375000
955.282227	53245.132812
954.127930	53631.550781
952.972656	53493.964844
951.817383	53464.640625
950.662109	53257.886719
949.506836	53098.804688
948.350586	53601.683594
947.195312	53533.425781
946.039062	53318.152344
944.882812	53148.355469
943.725586	53218.546875
942.569336	53277.906250
941.412109	53216.238281
940.254883	53120.027344
939.097656	53209.601562
937.939453	53521.570312
936.782227	53369.210938
935.624023	53650.808594
934.465820	53295.593750
933.306641	53214.566406
932.148438	53245.757812
930.989258	53078.476562
929.830078	53629.449219
928.670898	52791.531250
927.510742	53139.691406
926.351562	53114.812500
925.191406	53120.109375
924.031250	53134.023438
922.871094	52887.250000
921.709961	52836.578125
920.548828	53059.421875
919.387695	52957.054688
918.226562	52880.554688
917.065430	52642.656250
915.903320	52921.316406
914.741211	52952.437500
913.579102	52897.496094
912.416992	52900.648438
911.254883	53166.140625
910.091797	52887.585938
908.928711	52895.031250
907.765625	52885.273438
906.601562	52621.960938
905.438477	52745.453125
904.274414	52550.992188
903.110352	52717.402344
901.946289	52473.628906
900.781250	52530.496094
899.617188	52522.949219
898.452148	52672.062500
897.287109	52621.578125
896.121094	52129.187500
894.956055	52842.375000
893.790039	52586.011719
892.624023	52681.359375
891.458008	52723.082031
890.291016	52610.472656
889.125000	52671.472656
887.958008	52895.277344
886.791016	52493.511719
885.623047	52355.316406
884.456055	52527.656250
883.288086	52490.125000
882.120117	52643.105469
880.952148	52763.925781
879.783203	52486.718750
878.615234	52639.609375
877.446289	52473.746094
876.277344	52109.058594
875.107422	52396.625000
873.938477	52478.867188
872.768555	52368.714844
871.598633	52269.285156
870.428711	52695.476562
869.257812	52452.898438
868.087891	52535.042969
866.916992	52783.707031
865.746094	52805.972656
864.575195	52691.617188
863.403320	52186.750000
862.231445	52275.253906
861.059570	52312.523438
859.887695	52595.066406
858.715820	52715.429688
857.542969	52746.191406
856.370117	52898.453125
855.197266	52880.144531
854.024414	52646.605469
852.850586	52338.578125
851.676758	52801.804688
850.503906	52802.687500
849.329102	52471.371094
848.155273	52551.082031
846.980469	52818.082031
845.805664	52682.742188
844.630859	52824.070312
843.456055	53161.070312
842.280273	52949.160156
841.105469	53339.171875
839.929688	53114.542969
838.753906	53191.875000
837.577148	53101.257812
836.400391	52889.539062
835.224609	53113.464844
834.046875	52961.300781
832.870117	52807.066406
831.693359	53264.464844
830.515625	52931.882812
829.337891	53147.089844
828.160156	53014.148438
826.981445	52927.937500
825.803711	53234.246094
824.625000	52740.757812
823.446289	53218.765625
822.266602	52884.484375
821.087891	53283.843750
819.908203	52830.972656
818.728516	53291.644531
817.548828	53061.414062
816.368164	53140.550781
815.188477	53149.765625
814.007812	52968.382812
812.827148	53204.164062
811.645508	52925.460938
810.464844	53468.042969
809.283203	53212.667969
808.101562	53132.984375
806.919922	53171.781250
805.737305	53045.601562
804.554688	53035.765625
803.373047	53351.500000
802.189453	52834.312500
801.006836	53139.398438
799.823242	53118.976562
798.640625	52952.792969
797.457031	53297.808594
796.272461	52867.679688
795.088867	53187.242188
793.904297	52879.726562
792.719727	53057.753906
791.535156	52560.457031
790.350586	53521.207031
789.165039	52939.625000
787.979492	53071.101562
786.793945	53194.093750
785.608398	53091.453125
784.421875	52902.433594
783.236328	52848.351562
782.049805	52560.410156
780.862305	52948.808594
779.675781	52962.144531
778.488281	53013.378906
777.300781	53216.187500
776.113281	52886.328125
774.925781	52764.957031
773.737305	52462.656250
772.549805	52558.105469
771.361328	52956.425781
770.171875	52990.753906
768.983398	52646.570312
767.793945	53059.359375
766.604492	52849.812500
765.415039	52713.894531
764.225586	52481.375000
763.035156	52757.328125
761.845703	52797.929688
760.655273	52607.515625
759.463867	52673.320312
758.273438	52493.492188
757.082031	53060.914062
755.890625	52732.082031
754.699219	52680.316406
753.507812	52901.261719
752.315430	52518.109375
751.123047	52854.328125
749.930664	52739.671875
748.738281	52218.410156
747.544922	52839.511719
746.351562	53018.261719
745.158203	53098.480469
743.964844	53006.914062
742.771484	52833.707031
741.577148	52727.558594
740.382812	52822.417969
739.188477	52647.242188
737.994141	52572.570312
736.798828	53025.167969
735.603516	52471.421875
734.408203	52463.746094
733.212891	53137.753906
732.016602	52853.984375
730.821289	52812.789062
729.625000	52671.292969
728.428711	52667.753906
727.231445	52670.480469
726.035156	52917.582031
724.837891	52707.250000
723.640625	53014.796875
722.442383	52554.011719
721.245117	52602.664062
720.046875	52791.105469
718.848633	53102.574219
717.650391	52733.890625
716.451172	52298.601562
715.252930	52712.156250
714.053711	52873.289062
712.854492	52857.179688
711.654297	53105.753906
710.455078	52574.937500
709.254883	52735.968750
708.054688	52926.093750
706.853516	52537.214844
705.653320	52723.136719
704.452148	52696.652344
703.250977	52757.593750
702.049805	53263.832031
700.847656	52806.578125
699.646484	53031.789062
698.444336	52990.703125
697.242188	53086.867188
696.039062	53058.253906
694.836914	53193.859375
693.633789	52797.386719
692.430664	53215.570312
691.227539	53197.332031
690.023438	53079.398438
688.819336	53227.324219
687.615234	52588.273438
686.411133	53074.601562
685.207031	52869.597656
684.001953	52656.367188
682.796875	52771.023438
681.591797	52964.460938
680.386719	52908.945312
679.180664	53212.175781
677.974609	53140.046875
676.768555	52862.734375
675.562500	53053.886719
674.356445	52979.746094
673.149414	52690.179688
671.942383	53061.449219
670.735352	53047.398438
669.527344	53182.425781
668.320312	52977.902344
667.112305	52870.726562
665.904297	53411.289062
664.695312	53206.832031
663.487305	52950.730469
662.278320	53189.015625
661.069336	52949.554688
659.860352	53181.542969
658.650391	53339.031250
657.440430	52746.277344
656.230469	52943.039062
655.020508	52993.054688
653.810547	52656.804688
652.599609	52863.792969
651.388672	52841.519531
650.177734	52831.640625
648.966797	52576.156250
647.754883	52605.531250
646.542969	52977.375000
645.331055	52965.402344
644.119141	52437.843750
642.906250	53151.789062
641.694336	52877.960938
640.481445	52674.316406
639.267578	52860.242188
638.054688	52720.542969
636.840820	52628.277344
635.626953	52682.277344
634.413086	52664.183594
633.199219	52314.609375
631.984375	52607.417969
630.769531	52636.675781
629.554688	52618.593750
628.339844	52631.375000
627.124023	52605.066406
625.909180	52383.386719
624.693359	52904.082031
623.476562	52696.816406
622.260742	52501.960938
621.043945	52746.953125
619.827148	52808.988281
618.610352	52823.750000
617.393555	52780.992188
616.175781	52715.664062
614.958008	53056.871094
613.740234	53221.414062
612.522461	53379.738281
611.303711	52739.781250
610.084961	53209.968750
608.866211	53013.339844
607.647461	52660.917969
606.427734	52726.914062
605.208984	52567.378906
603.989258	52828.082031
602.768555	52648.089844
601.548828	52726.324219
600.328125	52925.386719
599.107422	53019.917969
597.886719	52794.964844
596.666016	52475.914062
595.444336	52464.027344
594.222656	52366.183594
593.000977	52618.277344
591.779297	52512.253906
590.556641	52692.632812
589.334961	52901.570312
588.112305	52754.652344
586.888672	52295.011719
585.666016	53004.656250
584.442383	52465.437500
583.218750	52382.039062
581.995117	52337.484375
580.770508	52823.957031
579.546875	52585.339844
578.322266	52773.507812
577.097656	53049.375000
575.872070	52647.574219
574.647461	52686.660156
573.421875	52870.578125
572.196289	52405.800781
570.969727	52514.242188
569.744141	52500.300781
568.517578	53030.656250
567.291016	52659.945312
566.064453	52804.925781
564.836914	52493.472656
563.609375	52976.570312
562.381836	52380.066406
561.154297	52433.351562
559.926758	52506.972656
558.698242	52586.667969
557.469727	52346.820312
556.241211	51968.699219
555.012695	52412.589844
553.783203	52219.687500
552.553711	52370.523438
551.324219	52419.640625
550.094727	52470.773438
548.864258	52479.203125
547.633789	52333.187500
546.403320	52506.199219
545.172852	52404.921875
543.941406	52283.367188
542.710938	52332.421875
541.479492	52062.722656
540.247070	52292.441406
539.015625	52282.605469
537.783203	51931.902344
536.550781	52342.054688
535.318359	52344.378906
534.085938	51716.039062
532.852539	51511.671875
531.619141	51593.199219
530.385742	51674.695312
529.152344	52015.523438
527.917969	51916.593750
526.683594	51769.085938
525.449219	51923.378906
524.214844	51856.914062
522.979492	51942.296875
521.744141	51359.718750
520.508789	51712.285156
519.273438	51789.546875
518.037109	51741.363281
516.801758	51571.839844
515.565430	51693.566406
514.328125	51689.898438
513.091797	51831.765625
511.854492	51890.714844
510.617188	51460.656250
509.379883	51412.578125
508.142578	51610.937500
506.904297	51534.570312
505.666016	51579.375000
504.427734	51704.910156
503.189453	51961.585938
501.950195	51705.605469
500.710938	51661.562500
499.471680	51661.910156
498.232422	51847.804688
496.992188	51464.992188
495.751953	51671.007812
494.511719	51693.515625
493.271484	51859.101562
492.030273	51770.742188
490.790039	51682.414062
489.548828	51682.738281
488.306641	51697.156250
487.065430	51359.226562
485.823242	51778.308594
484.581055	51802.757812
483.338867	51837.253906
482.095703	51777.179688
480.853516	51556.207031
479.610352	51602.789062
478.367188	51761.953125
477.123047	51722.031250
475.879883	52043.914062
474.635742	52096.390625
473.391602	51620.421875
472.146484	51825.625000
470.902344	51946.390625
469.657227	51876.343750
468.412109	51593.503906
467.166016	52001.285156
465.920898	51969.390625
464.674805	51722.804688
463.428711	51528.468750
462.182617	51733.359375
460.935547	51853.941406
459.688477	51816.074219
458.441406	51748.152344
457.194336	51642.175781
455.946289	52047.226562
454.699219	51416.300781
453.451172	51416.605469
452.202148	51731.335938
450.954102	51226.972656
449.705078	51225.300781
448.456055	51475.832031
447.207031	51508.128906
445.958008	50970.164062
444.708008	50902.515625
443.458008	51138.906250
442.208008	51193.230469
440.957031	51189.550781
439.707031	51035.945312
438.456055	51294.109375
437.205078	50970.687500
435.953125	50921.093750
434.702148	50529.945312
433.450195	50817.957031
432.198242	50908.179688
430.945312	50864.613281
429.693359	51100.496094
428.440430	50683.730469
427.187500	50757.937500
425.934570	50706.445312
424.680664	51089.753906
423.426758	50597.523438
422.172852	50570.003906
420.918945	51090.656250
419.664062	51140.773438
418.410156	51234.707031
417.155273	51250.906250
415.899414	51372.664062
414.644531	51384.843750
413.388672	51643.906250
412.132812	51431.082031
410.876953	51459.156250
409.620117	50939.992188
408.364258	50999.980469
407.107422	50857.046875
405.849609	50982.652344
404.592773	50533.554688
403.334961	50523.984375
402.077148	50969.585938
400.819336	50657.863281
399.561523	51057.566406
398.302734	50231.429688
397.043945	50718.449219
395.785156	50508.273438
394.525391	50905.710938
393.266602	50377.968750
392.006836	50384.296875
390.747070	50233.863281
389.486328	50309.648438
388.226562	50621.441406
386.965820	50387.750000
385.705078	50344.488281
384.443359	50529.214844
383.182617	50315.484375
381.920898	50220.734375
380.659180	50504.437500
379.396484	50124.429688
378.134766	50332.781250
376.872070	50176.703125
375.609375	50076.113281
374.346680	49967.644531
373.083008	49956.183594
371.819336	49996.171875
370.555664	49834.359375
369.291992	49896.105469
368.027344	50108.117188
366.762695	49681.429688
365.498047	50268.984375
364.233398	49696.171875
362.968750	49639.312500
361.703125	49849.183594
360.437500	49891.078125
359.170898	49403.683594
357.905273	49822.769531
356.638672	49643.531250
355.372070	49880.824219
354.105469	49575.343750
352.837891	49337.058594
351.571289	49694.597656
350.303711	49395.234375
349.035156	49322.750000
347.767578	49575.589844
346.499023	49564.199219
345.230469	49479.894531
343.961914	49429.113281
342.692383	49299.550781
341.423828	49300.027344
340.154297	49085.855469
338.883789	49470.304688
337.614258	49260.109375
336.343750	48977.175781
335.073242	49272.867188
333.802734	48852.316406
332.532227	48494.863281
331.260742	48987.136719
329.989258	48779.226562
328.717773	48905.597656
327.445312	48621.125000
326.173828	48869.308594
324.901367	48806.964844
323.627930	48713.210938
322.355469	48821.785156
321.082031	48879.261719
319.808594	48832.660156
318.535156	49005.917969
317.261719	48533.433594
315.987305	49126.582031
314.712891	48520.847656
313.438477	48605.761719
312.164062	49216.199219
310.888672	48593.140625
309.613281	48481.957031
308.337891	48772.593750
307.061523	48698.644531
305.786133	49006.757812
304.509766	49230.523438
303.233398	49340.609375
301.956055	49450.656250
300.678711	49971.769531
299.402344	49848.726562
298.124023	50334.335938
296.846680	50125.179688
295.568359	50512.734375
294.290039	50853.203125
293.011719	50456.335938
291.733398	50024.425781
290.454102	49444.121094
289.174805	49403.429688
287.895508	48684.726562
286.616211	48315.988281
285.335938	48435.691406
284.055664	47977.304688
282.775391	48163.406250
281.494141	48124.941406
280.213867	47362.402344
278.932617	47913.410156
277.651367	47742.339844
276.369141	47610.347656
275.087891	47127.363281
273.805664	47444.000000
272.523438	47401.808594
271.240234	47423.953125
269.958008	47531.832031
268.674805	47053.207031
267.390625	46631.250000
266.107422	47124.843750
264.823242	47333.945312
263.539062	47046.507812
262.254883	47099.816406
260.970703	47705.808594
259.685547	47700.593750
258.400391	47942.445312
257.115234	48425.386719
255.830078	48616.441406
254.543945	48393.285156
253.257812	48162.441406
251.971680	48316.503906
250.684570	47988.593750
249.398438	47569.500000
248.111328	47492.429688
246.824219	47044.453125
245.536133	47173.328125
244.248047	46779.933594
242.960938	46423.570312
241.671875	46569.945312
240.383789	46467.917969
239.094727	46641.382812
237.805664	46471.496094
236.516602	46291.972656
235.227539	46236.597656
233.937500	46198.683594
232.647461	46195.667969
231.357422	46535.609375
230.066406	46964.527344
228.775391	48104.113281
227.485352	48054.250000
226.193359	47522.308594
224.902344	46713.750000
223.610352	46075.816406
222.318359	45618.078125
221.026367	45489.406250
219.733398	45358.847656
218.441406	45259.277344
217.148438	45467.175781
215.854492	45091.175781
214.561523	44856.410156
213.267578	44594.679688
211.973633	44874.023438
210.679688	44635.562500
209.384766	44482.171875
208.090820	44162.777344
206.795898	44604.148438
205.500000	44825.304688
204.205078	44367.074219
202.909180	43775.878906
201.613281	44157.175781
200.317383	44216.226562
199.020508	43960.929688
197.723633	43655.601562
196.426758	43670.371094
195.129883	43837.386719
193.832031	43563.082031
192.534180	43350.527344
191.236328	43804.496094
189.938477	43624.710938
188.639648	43589.398438
187.341797	43396.242188
186.042969	43243.578125
184.743164	43256.457031
183.444336	43498.281250
182.144531	43203.332031
180.844727	43577.769531
179.543945	43302.140625
178.244141	43147.734375
176.943359	43199.046875
175.642578	43104.289062
174.340820	43126.765625
173.040039	43024.367188
171.738281	43190.894531
170.435547	42954.101562
169.133789	43162.808594
167.831055	43037.441406
166.528320	42793.132812
165.225586	42775.328125
163.922852	42431.402344
162.619141	42457.785156
161.315430	42580.042969
160.011719	42629.390625
158.708008	42513.863281
157.403320	42246.968750
156.098633	42371.078125
154.793945	42133.042969
153.488281	42128.789062
152.182617	41890.890625
150.876953	41854.128906
149.571289	41612.539062
148.265625	41397.839844
146.958984	41359.273438
145.652344	41615.359375
144.345703	41467.726562
143.038086	41473.152344
141.730469	41480.484375
140.422852	41745.902344
139.115234	41340.308594
137.806641	41137.437500
136.498047	41030.179688
135.189453	40863.738281
133.880859	40338.289062
132.571289	40051.738281
131.262695	39690.835938
129.952148	39122.003906
128.642578	38665.992188
127.332031	38572.695312
126.021484	37437.796875
124.710938	36921.328125
123.400391	36542.359375
122.088867	35366.554688
120.777344	34650.613281
119.465820	33447.031250
