#Wave		#Intensity
1999.057617	23394.572266
1998.089844	23513.404297
1997.122070	23232.939453
1996.154297	23443.230469
1995.186523	23121.562500
1994.217773	23644.164062
1993.249023	23056.718750
1992.280273	23228.181641
1991.311523	23172.529297
1990.341797	23245.880859
1989.373047	23246.986328
1988.403320	23209.408203
1987.433594	23684.939453
1986.463867	23152.335938
1985.494141	23148.298828
1984.524414	23569.470703
1983.553711	23274.207031
1982.583008	23303.636719
1981.613281	23557.140625
1980.641602	23491.226562
1979.670898	23476.830078
1978.700195	23328.572266
1977.728516	23540.707031
1976.756836	23706.447266
1975.785156	23547.931641
1974.813477	23641.580078
1973.841797	23706.900391
1972.869141	23664.189453
1971.897461	23423.511719
1970.924805	23740.765625
1969.952148	23703.208984
1968.979492	23681.083984
1968.005859	23615.285156
1967.033203	23403.078125
1966.059570	23784.267578
1965.085938	23697.937500
1964.112305	23318.931641
1963.138672	23574.142578
1962.165039	23670.128906
1961.190430	23753.248047
1960.215820	23618.244141
1959.242188	23801.392578
1958.266602	23717.722656
1957.291992	23931.560547
1956.317383	23673.544922
1955.341797	23510.468750
1954.366211	23862.634766
1953.390625	23981.476562
1952.415039	23754.373047
1951.439453	23906.492188
1950.463867	23643.621094
1949.487305	23803.386719
1948.510742	23842.755859
1947.534180	24094.589844
1946.557617	24021.271484
1945.580078	23651.125000
1944.603516	23677.695312
1943.625977	24228.685547
1942.648438	23894.501953
1941.670898	23938.914062
1940.693359	23985.867188
1939.715820	23986.789062
1938.737305	23709.107422
1937.758789	23881.292969
1936.780273	24048.308594
1935.801758	23913.818359
1934.823242	23986.263672
1933.844727	23869.705078
1932.865234	23809.359375
1931.885742	23978.789062
1930.906250	24012.880859
1929.926758	23812.181641
1928.947266	23805.466797
1927.966797	23865.080078
1926.986328	23863.457031
1926.006836	24025.042969
1925.026367	24059.085938
1924.044922	23746.416016
1923.064453	23935.972656
1922.083008	24023.525391
1921.102539	24128.884766
1920.121094	23872.460938
1919.139648	23865.738281
1918.157227	23983.796875
1917.175781	23867.570312
1916.193359	24064.503906
1915.211914	24055.201172
1914.229492	24188.412109
1913.246094	24115.480469
1912.263672	23859.412109
1911.281250	23791.648438
1910.297852	24229.970703
1909.314453	24085.886719
1908.331055	23802.035156
1907.347656	24003.744141
1906.363281	24030.037109
1905.379883	24185.900391
1904.395508	24006.380859
1903.411133	23895.500000
1902.426758	24061.458984
1901.442383	24064.863281
1900.458008	24240.886719
1899.472656	24223.951172
1898.487305	24275.537109
1897.501953	23702.941406
1896.516602	23805.335938
1895.531250	24196.837891
1894.544922	24187.525391
1893.559570	23924.669922
1892.573242	24300.732422
1891.586914	23880.802734
1890.599609	24264.341797
1889.613281	23834.429688
1888.625977	24053.177734
1887.639648	23818.478516
1886.652344	24320.775391
1885.665039	24187.384766
1884.676758	24226.179688
1883.689453	23935.927734
1882.701172	24007.648438
1881.713867	24140.068359
1880.725586	24143.425781
1879.736328	24065.843750
1878.748047	24112.201172
1877.759766	24064.990234
1876.770508	23987.460938
1875.781250	24114.683594
1874.791992	24486.982422
1873.802734	24573.646484
1872.812500	23692.761719
1871.823242	24110.398438
1870.833008	24161.726562
1869.842773	24096.892578
1868.852539	24302.187500
1867.862305	24285.304688
1866.871094	24583.863281
1865.880859	24120.355469
1864.889648	24217.027344
1863.898438	24381.763672
1862.907227	24304.355469
1861.915039	24360.599609
1860.923828	24628.576172
1859.931641	24107.572266
1858.939453	24362.896484
1857.947266	24149.500000
1856.955078	24253.582031
1855.961914	24236.730469
1854.969727	24418.822266
1853.976562	24396.912109
1852.983398	24405.214844
1851.990234	24146.726562
1850.997070	24150.037109
1850.002930	24570.996094
1849.008789	24461.029297
1848.014648	24496.974609
1847.020508	24505.246094
1846.026367	24606.539062
1845.032227	24519.261719
1844.037109	24489.822266
1843.042969	24483.007812
1842.047852	24619.404297
1841.051758	24409.093750
1840.056641	24161.185547
1839.061523	24518.541016
1838.065430	24770.322266
1837.069336	24472.271484
1836.073242	24698.873047
1835.077148	24576.593750
1834.081055	24489.480469
1833.083984	24886.531250
1832.086914	24701.580078
1831.090820	24554.304688
1830.092773	24738.025391
1829.095703	24355.164062
1828.098633	24671.685547
1827.100586	24439.318359
1826.102539	24708.107422
1825.104492	24691.240234
1824.106445	24651.835938
1823.108398	24494.751953
1822.109375	24590.589844
1821.111328	24295.896484
1820.112305	24491.843750
1819.113281	24622.660156
1818.113281	24385.656250
1817.114258	24624.005859
1816.114258	24707.208984
1815.115234	24560.332031
1814.115234	24536.009766
1813.115234	24789.158203
1812.114258	24992.232422
1811.114258	24850.402344
1810.113281	24898.496094
1809.112305	24746.738281
1808.111328	24742.382812
1807.110352	24693.082031
1806.109375	24536.445312
1805.107422	24537.119141
1804.105469	24647.603516
1803.103516	24980.125000
1802.101562	24845.998047
1801.099609	24729.376953
1800.096680	24627.759766
1799.094727	24713.189453
1798.091797	24666.457031
1797.088867	24834.105469
1796.085938	24779.888672
1795.082031	24758.082031
1794.079102	24908.185547
1793.075195	24901.306641
1792.071289	24884.468750
1791.067383	24698.316406
1790.063477	24397.708984
1789.058594	24988.312500
1788.053711	24792.281250
1787.049805	24735.660156
1786.044922	24781.058594
1785.039062	24935.884766
1784.034180	24767.353516
1783.028320	24835.097656
1782.023438	25109.160156
1781.017578	24841.259766
1780.011719	24814.515625
1779.004883	24907.048828
1777.999023	24770.990234
1776.992188	24480.980469
1775.985352	24985.767578
1774.978516	24581.601562
1773.971680	24788.285156
1772.964844	24644.917969
1771.957031	25196.468750
1770.950195	24646.152344
1769.942383	24448.304688
1768.934570	24739.158203
1767.925781	24784.394531
1766.917969	24710.597656
1765.909180	25102.888672
1764.900391	24830.769531
1763.891602	24665.308594
1762.882812	24591.582031
1761.874023	24921.679688
1760.864258	24758.765625
1759.854492	24798.972656
1758.844727	24633.658203
1757.834961	24681.298828
1756.825195	24436.857422
1755.815430	24821.072266
1754.804688	24606.380859
1753.793945	24738.097656
1752.783203	24615.009766
1751.772461	24736.787109
1750.760742	24354.128906
1749.750000	24522.873047
1748.738281	24560.562500
1747.726562	24655.076172
1746.714844	24672.960938
1745.703125	24651.312500
1744.690430	24684.007812
1743.678711	24417.888672
1742.666016	24843.185547
1741.653320	24986.914062
1740.640625	24669.046875
1739.626953	24620.271484
1738.614258	24941.603516
1737.600586	24589.375000
1736.586914	24930.328125
1735.573242	24669.464844
1734.558594	24605.933594
1733.544922	24922.048828
1732.530273	24851.101562
1731.515625	24711.179688
1730.500977	24768.408203
1729.486328	24569.427734
1728.471680	24813.839844
1727.456055	24757.744141
1726.440430	24878.931641
1725.424805	24771.148438
1724.409180	24567.416016
1723.393555	24683.650391
1722.376953	24703.890625
1721.360352	24790.539062
1720.344727	24574.644531
1719.328125	25037.509766
1718.310547	24725.763672
1717.293945	24775.470703
1716.276367	24613.798828
1715.258789	24825.685547
1714.241211	24747.589844
1713.223633	24895.509766
1712.206055	24829.708984
1711.187500	24849.873047
1710.169922	24462.484375
1709.151367	24693.804688
1708.132812	24934.859375
1707.113281	24785.673828
1706.094727	24832.810547
1705.075195	25029.556641
1704.055664	24713.662109
1703.036133	24812.277344
1702.016602	24856.917969
1700.997070	24908.898438
1699.976562	24853.023438
1698.956055	24799.619141
1697.935547	24797.681641
1696.915039	24991.697266
1695.894531	24899.109375
1694.873047	24828.589844
1693.852539	24985.773438
1692.831055	25022.960938
1691.809570	24719.962891
1690.788086	25053.251953
1689.765625	24801.728516
1688.743164	25027.259766
1687.721680	25061.957031
1686.699219	24732.318359
1685.676758	24987.076172
1684.653320	24999.759766
1683.630859	25161.511719
1682.607422	24905.386719
1681.583984	24793.486328
1680.560547	24781.767578
1679.537109	25287.771484
1678.512695	24787.636719
1677.488281	24719.775391
1676.464844	24876.486328
1675.440430	24767.144531
1674.415039	24767.634766
1673.390625	24765.685547
1672.365234	24868.615234
1671.340820	24778.857422
1670.315430	24896.375000
1669.290039	25006.537109
1668.263672	24958.232422
1667.238281	24814.906250
1666.211914	24871.419922
1665.185547	25057.019531
1664.159180	24904.005859
1663.132812	24702.343750
1662.105469	24973.087891
1661.079102	24688.714844
1660.051758	24847.406250
1659.024414	24860.035156
1657.997070	24785.068359
1656.968750	24856.083984
1655.941406	24776.279297
1654.913086	24618.685547
1653.884766	24881.759766
1652.856445	24816.576172
1651.828125	24870.503906
1650.798828	24931.701172
1649.769531	24771.785156
1648.740234	24551.197266
1647.710938	24770.281250
1646.681641	24974.716797
1645.652344	24873.171875
1644.622070	24922.162109
1643.591797	24500.298828
1642.561523	24779.855469
1641.531250	24464.916016
1640.500977	24572.154297
1639.469727	24904.902344
1638.438477	24769.541016
1637.408203	24716.656250
1636.375977	24818.921875
1635.344727	24831.480469
1634.313477	24436.953125
1633.281250	24844.466797
1632.249023	24956.322266
1631.216797	24869.548828
1630.184570	24681.107422
1629.151367	24403.156250
1628.119141	24669.919922
1627.085938	24885.767578
1626.052734	24702.291016
1625.019531	24966.437500
1623.985352	24647.558594
1622.952148	24691.546875
1621.917969	24334.140625
1620.883789	24723.871094
1619.849609	24576.871094
1618.815430	24309.087891
1617.780273	24701.029297
1616.745117	24684.560547
1615.709961	24880.648438
1614.674805	24574.359375
1613.639648	24528.945312
1612.604492	24399.052734
1611.568359	24706.076172
1610.532227	24619.634766
1609.496094	24702.117188
1608.459961	24331.046875
1607.423828	24437.669922
1606.386719	24462.261719
1605.349609	24764.119141
1604.312500	24636.771484
1603.275391	24702.287109
1602.238281	24334.015625
1601.200195	24201.992188
1600.163086	24575.888672
1599.125000	24720.843750
1598.086914	24600.859375
1597.047852	24512.214844
1596.009766	24587.291016
1594.970703	24671.968750
1593.931641	24915.433594
1592.892578	24540.486328
1591.853516	24360.517578
1590.814453	24695.298828
1589.774414	24248.449219
1588.734375	24602.361328
1587.694336	24420.101562
1586.654297	24665.705078
1585.614258	24303.277344
1584.573242	24592.056641
1583.532227	24453.162109
1582.492188	24708.187500
1581.450195	24456.460938
1580.409180	24706.591797
1579.368164	24610.978516
1578.326172	24908.988281
1577.284180	24933.345703
1576.242188	24569.042969
1575.200195	24713.384766
1574.157227	24644.230469
1573.115234	24793.300781
1572.072266	24618.669922
1571.029297	24537.582031
1569.985352	24626.673828
1568.942383	24881.066406
1567.898438	24445.412109
1566.855469	24797.947266
1565.811523	24467.833984
1564.767578	24635.869141
1563.722656	24514.175781
1562.678711	24600.759766
1561.633789	24850.044922
1560.588867	24795.371094
1559.543945	24685.691406
1558.499023	24611.927734
1557.453125	24882.550781
1556.407227	24691.619141
1555.361328	24603.548828
1554.315430	24718.667969
1553.269531	24513.525391
1552.223633	24540.214844
1551.176758	24657.669922
1550.129883	24741.644531
1549.083008	24761.111328
1548.036133	24436.761719
1546.989258	24859.701172
1545.941406	25077.230469
1544.893555	24905.716797
1543.845703	24772.437500
1542.797852	24779.945312
1541.750000	24479.783203
1540.701172	24969.025391
1539.652344	25045.630859
1538.603516	24819.474609
1537.554688	24850.794922
1536.505859	24589.007812
1535.456055	25046.816406
1534.407227	24725.535156
1533.357422	24585.371094
1532.307617	24602.414062
1531.256836	24602.783203
1530.207031	24791.197266
1529.156250	24929.566406
1528.105469	24768.070312
1527.054688	24592.355469
1526.003906	25077.962891
1524.953125	24448.015625
1523.901367	24809.828125
1522.849609	24598.566406
1521.797852	24915.060547
1520.746094	24920.117188
1519.694336	24723.201172
1518.641602	24844.695312
1517.588867	24807.003906
1516.536133	24565.091797
1515.483398	24425.361328
1514.430664	24684.507812
1513.376953	24409.513672
1512.323242	24277.003906
1511.269531	24512.308594
1510.215820	24602.818359
1509.162109	24636.371094
1508.107422	24584.539062
1507.053711	24437.884766
1505.999023	24653.980469
1504.944336	24507.365234
1503.888672	24870.291016
1502.833984	24567.312500
1501.778320	24378.148438
1500.722656	24705.373047
1499.666992	24587.291016
1498.611328	24492.923828
1497.555664	24495.646484
1496.499023	24536.234375
1495.442383	24749.548828
1494.385742	24730.927734
1493.329102	24821.123047
1492.271484	24575.445312
1491.214844	24592.332031
1490.157227	24592.660156
1489.099609	24604.808594
1488.041992	24430.242188
1486.983398	24305.361328
1485.925781	24539.626953
1484.867188	24660.427734
1483.808594	24606.419922
1482.750000	24613.822266
1481.691406	24448.878906
1480.631836	24335.923828
1479.572266	24286.728516
1478.512695	24294.179688
1477.453125	24499.794922
1476.393555	24384.548828
1475.333008	24429.707031
1474.273438	24463.060547
1473.212891	24376.167969
1472.152344	24661.718750
1471.090820	24244.894531
1470.030273	24391.349609
1468.968750	24561.308594
1467.907227	24392.035156
1466.845703	24547.800781
1465.784180	24152.556641
1464.721680	24313.015625
1463.660156	24216.867188
1462.597656	24287.832031
1461.535156	24259.953125
1460.472656	24323.826172
1459.409180	24215.980469
1458.345703	24336.273438
1457.283203	24552.919922
1456.219727	24447.439453
1455.155273	24189.224609
1454.091797	24079.146484
1453.027344	24077.179688
1451.963867	24521.527344
1450.899414	24042.712891
1449.833984	24296.703125
1448.769531	24088.091797
1447.704102	24332.591797
1446.639648	23994.966797
1445.574219	24075.138672
1444.507812	24176.394531
1443.442383	24261.193359
1442.375977	24603.939453
1441.310547	24325.181641
1440.244141	24212.976562
1439.177734	24131.281250
1438.110352	23941.812500
1437.043945	23998.439453
1435.976562	24169.837891
1434.909180	24179.554688
1433.841797	24257.181641
1432.773438	24004.634766
1431.706055	24243.796875
1430.637695	24150.501953
1429.569336	24183.611328
1428.500977	24286.900391
1427.432617	24200.664062
1426.363281	24486.349609
1425.294922	24283.179688
1424.225586	24054.363281
1423.156250	24155.240234
1422.085938	24013.005859
1421.016602	24111.515625
1419.946289	24249.707031
1418.875977	24231.337891
1417.805664	23970.072266
1416.735352	24325.382812
1415.664062	24050.183594
1414.593750	24134.568359
1413.522461	24204.917969
1412.451172	24265.908203
1411.379883	24317.542969
1410.307617	24294.513672
1409.235352	23972.966797
1408.164062	24045.609375
1407.090820	24055.277344
1406.018555	24018.320312
1404.946289	24102.566406
1403.873047	24268.333984
1402.799805	24012.363281
1401.726562	24049.976562
1400.653320	24113.191406
1399.580078	24045.988281
1398.505859	24139.443359
1397.431641	24207.259766
1396.357422	23988.806641
1395.283203	23917.015625
1394.208008	23803.376953
1393.133789	23940.980469
1392.058594	23904.117188
1390.983398	23890.519531
1389.908203	24193.082031
1388.832031	24160.839844
1387.756836	23931.080078
1386.680664	24124.267578
1385.604492	23903.888672
1384.528320	24143.460938
1383.451172	23783.824219
1382.375000	23930.458984
1381.297852	24042.222656
1380.220703	23982.193359
1379.143555	24124.070312
1378.065430	24013.005859
1376.988281	24196.578125
1375.910156	24050.748047
1374.832031	23900.333984
1373.753906	23724.466797
1372.674805	23812.917969
1371.596680	23994.039062
1370.517578	24024.476562
1369.438477	23853.345703
1368.359375	24006.562500
1367.279297	24078.666016
1366.200195	23909.929688
1365.120117	24151.023438
1364.040039	23991.591797
1362.959961	23846.101562
1361.878906	23672.896484
1360.798828	23592.289062
1359.717773	23858.662109
1358.636719	23976.931641
1357.555664	23937.929688
1356.473633	23889.693359
1355.392578	24056.429688
1354.310547	23837.179688
1353.228516	23761.257812
1352.146484	23752.357422
1351.063477	24062.191406
1349.981445	23806.146484
1348.898438	23968.093750
1347.815430	23559.798828
1346.732422	23643.257812
1345.649414	23959.750000
1344.565430	23613.968750
1343.481445	24031.849609
1342.397461	23893.750000
1341.313477	23723.414062
1340.229492	23788.302734
1339.144531	23724.080078
1338.059570	24033.240234
1336.974609	24337.677734
1335.889648	23824.136719
1334.804688	23925.798828
1333.718750	24036.634766
1332.632812	24152.035156
1331.546875	23754.003906
1330.460938	23588.593750
1329.375000	23927.240234
1328.288086	23955.136719
1327.201172	23759.871094
1326.114258	23716.482422
1325.027344	23946.771484
1323.940430	23924.056641
1322.852539	24004.796875
1321.764648	23662.591797
1320.676758	23936.384766
1319.588867	24040.052734
1318.500977	23716.400391
1317.412109	23820.068359
1316.324219	23806.582031
1315.235352	23857.388672
1314.145508	24146.912109
1313.056641	23532.044922
1311.966797	23940.845703
1310.876953	23750.683594
1309.787109	23578.939453
1308.697266	23677.888672
1307.607422	23664.439453
1306.516602	23965.087891
1305.425781	23364.777344
1304.334961	23818.921875
1303.244141	23539.650391
1302.153320	23743.876953
1301.061523	23437.230469
1299.969727	23797.132812
1298.877930	23801.992188
1297.786133	23740.457031
1296.694336	23701.833984
1295.601562	23546.507812
1294.508789	23739.029297
1293.416016	23517.408203
1292.323242	23586.349609
1291.230469	23403.710938
1290.136719	23591.541016
1289.042969	23415.824219
1287.949219	23459.589844
1286.855469	23661.015625
1285.760742	23428.257812
1284.666992	23673.019531
1283.572266	23572.812500
1282.477539	23317.357422
1281.381836	23418.164062
1280.287109	23468.714844
1279.191406	23380.023438
1278.095703	23289.082031
1277.000000	23508.455078
1275.904297	23369.619141
1274.808594	23301.533203
1273.711914	23623.392578
1272.615234	23386.574219
1271.518555	23596.609375
1270.421875	23216.300781
1269.324219	23353.373047
1268.226562	23066.650391
1267.129883	23299.365234
1266.031250	23409.015625
1264.933594	23495.857422
1263.835938	23332.246094
1262.737305	23289.328125
1261.638672	23155.394531
1260.540039	23228.562500
1259.441406	23556.490234
1258.341797	23302.033203
1257.242188	23263.703125
1256.142578	23109.427734
1255.042969	22955.208984
1253.943359	23016.962891
1252.842773	23126.416016
1251.743164	22926.833984
1250.642578	23281.591797
1249.541016	23227.408203
1248.440430	22875.771484
1247.338867	23223.533203
1246.238281	23348.712891
1245.136719	23253.701172
1244.034180	23292.599609
1242.932617	23199.898438
1241.831055	23116.302734
1240.728516	23105.310547
1239.625977	23466.187500
1238.522461	23264.697266
1237.419922	23224.214844
1236.316406	23002.443359
1235.213867	23136.490234
1234.110352	23055.269531
1233.005859	23019.378906
1231.902344	23228.078125
1230.797852	23223.867188
1229.693359	22834.810547
1228.588867	23224.498047
1227.484375	23070.929688
1226.379883	23349.564453
1225.274414	23055.773438
1224.168945	23033.498047
1223.063477	23137.863281
1221.958008	22998.009766
1220.851562	23301.265625
1219.746094	23172.732422
1218.639648	23209.203125
1217.533203	23049.101562
1216.425781	22990.705078
1215.319336	22943.623047
1214.211914	23097.521484
1213.104492	22899.171875
1211.997070	23156.853516
1210.889648	23281.289062
1209.781250	23166.498047
1208.672852	23038.212891
1207.564453	23011.474609
1206.456055	23208.005859
1205.347656	23264.669922
1204.238281	23109.404297
1203.128906	23143.523438
1202.019531	22916.220703
1200.910156	23272.558594
1199.800781	23606.240234
1198.690430	23187.527344
1197.580078	23302.666016
1196.469727	23287.175781
1195.359375	23440.519531
1194.249023	22927.609375
1193.137695	22867.185547
1192.026367	23130.763672
1190.915039	23122.062500
1189.803711	23482.203125
1188.691406	23354.261719
1187.580078	23374.748047
1186.467773	22875.980469
1185.355469	22970.707031
1184.242188	23269.876953
1183.129883	23018.521484
1182.016602	22991.875000
1180.903320	23165.109375
1179.790039	23403.396484
1178.676758	22878.312500
1177.562500	23118.806641
1176.449219	22975.466797
1175.334961	23220.341797
1174.219727	23036.652344
1173.105469	23093.021484
1171.990234	23160.580078
1170.875977	23131.705078
1169.760742	23268.722656
1168.644531	23114.324219
1167.529297	23181.826172
1166.413086	22839.298828
1165.297852	23068.107422
1164.181641	22929.531250
1163.064453	23160.478516
1161.948242	23010.740234
1160.831055	23302.023438
1159.713867	23000.125000
1158.596680	22825.880859
1157.479492	23141.644531
1156.362305	23090.458984
1155.244141	22907.343750
1154.125977	22909.880859
1153.007812	22910.181641
1151.888672	22975.300781
1150.770508	22959.941406
1149.651367	22946.824219
1148.532227	22947.111328
1147.413086	23079.177734
1146.293945	22856.126953
1145.173828	22936.808594
1144.053711	22760.740234
1142.933594	22950.771484
1141.813477	22830.550781
1140.693359	23080.736328
1139.572266	22712.927734
1138.451172	22998.726562
1137.330078	22796.076172
1136.208984	22963.591797
1135.086914	22946.031250
1133.965820	22747.955078
1132.843750	22933.210938
1131.721680	22719.613281
1130.599609	22898.121094
1129.476562	22755.871094
1128.353516	22651.523438
1127.230469	22569.474609
1126.107422	22592.070312
1124.984375	22881.705078
1123.860352	22861.957031
1122.737305	22928.974609
1121.613281	22604.507812
1120.488281	22873.912109
1119.364258	22918.654297
1118.239258	22467.654297
1117.115234	22719.152344
1115.990234	22799.449219
1114.864258	22550.896484
1113.739258	22695.611328
1112.613281	22478.259766
1111.487305	22571.861328
1110.361328	22667.648438
1109.235352	22969.835938
1108.108398	22794.753906
1106.982422	22553.167969
1105.855469	22549.052734
1104.728516	22724.603516
1103.600586	22698.277344
1102.473633	22765.087891
1101.345703	22588.013672
1100.217773	22619.351562
1099.089844	22774.781250
1097.960938	22591.150391
1096.833008	22653.484375
1095.704102	22598.404297
1094.575195	22423.761719
1093.446289	22568.009766
1092.316406	22555.033203
1091.187500	22672.640625
1090.057617	22823.398438
1088.927734	22912.152344
1087.796875	22680.125000
1086.666992	22826.373047
1085.536133	22806.722656
1084.405273	22899.832031
1083.274414	22787.335938
1082.143555	22860.521484
1081.011719	22701.669922
1079.879883	22268.931641
1078.748047	22646.986328
1077.616211	22366.794922
1076.484375	22744.691406
1075.351562	22921.556641
1074.218750	22698.853516
1073.085938	22741.044922
1071.953125	22728.060547
1070.820312	22715.080078
1069.686523	22408.761719
1068.552734	22609.744141
1067.418945	22830.496094
1066.284180	22782.234375
1065.150391	22641.419922
1064.015625	22582.187500
1062.880859	22586.869141
1061.746094	22631.197266
1060.611328	22734.972656
1059.475586	22660.349609
1058.339844	22596.761719
1057.204102	22718.091797
1056.068359	22674.320312
1054.932617	22707.576172
1053.795898	22633.021484
1052.659180	22741.054688
1051.522461	22706.105469
1050.385742	22798.691406
1049.248047	22379.033203
1048.110352	22476.041016
1046.972656	22715.851562
1045.834961	22544.708984
1044.697266	22700.941406
1043.558594	22571.593750
1042.419922	22677.255859
1041.281250	22565.523438
1040.142578	22899.437500
1039.003906	22631.876953
1037.864258	22618.953125
1036.724609	22592.871094
1035.584961	22575.570312
1034.445312	22518.798828
1033.304688	22652.814453
1032.165039	22633.316406
1031.024414	22477.927734
1029.883789	22616.255859
1028.742188	22706.328125
1027.601562	22415.185547
1026.459961	22588.490234
1025.318359	22523.031250
1024.176758	22715.957031
1023.034180	22622.041016
1021.892578	22602.572266
1020.750000	22517.460938
1019.607422	22638.041016
1018.463867	22618.578125
1017.321289	22459.146484
1016.177734	22658.388672
1015.034180	22402.810547
1013.890625	22717.839844
1012.747070	22787.978516
1011.602539	22672.359375
1010.458008	22731.556641
1009.313477	22644.382812
1008.168945	22603.103516
1007.024414	22422.093750
1005.878906	22548.962891
1004.733398	22350.568359
1003.587891	22497.042969
1002.442383	22488.550781
1001.295898	22610.947266
1000.149414	22539.183594
999.002930	22613.550781
997.856445	22559.253906
996.709961	22803.617188
995.562500	22594.560547
994.415039	22457.488281
993.267578	22673.410156
992.120117	22344.685547
990.972656	22416.806641
989.824219	22273.332031
988.675781	22428.166016
987.527344	22572.060547
986.378906	22491.746094
985.229492	22476.734375
984.080078	22540.044922
982.930664	22442.375000
981.781250	22401.283203
980.631836	22679.822266
979.481445	22712.609375
978.331055	22634.539062
977.180664	22693.398438
976.030273	22458.923828
974.879883	22719.812500
973.728516	22537.542969
972.577148	22655.001953
971.425781	22442.414062
970.273438	22735.671875
969.122070	22657.701172
967.969727	22662.214844
966.817383	22441.099609
965.665039	22901.156250
964.511719	22430.679688
963.359375	22441.732422
962.206055	22491.800781
961.052734	22743.427734
959.898438	22531.203125
958.745117	22581.226562
957.590820	22648.558594
956.436523	22631.396484
955.282227	22538.447266
954.127930	22393.570312
952.972656	22770.435547
951.817383	22528.171875
950.662109	22487.240234
949.506836	22647.527344
948.350586	22429.212891
947.195312	22290.996094
946.039062	22500.960938
944.882812	22300.085938
943.725586	22650.466797
942.569336	22587.947266
941.412109	22709.109375
940.254883	22560.187500
939.097656	22560.351562
937.939453	22530.283203
936.782227	22552.042969
935.624023	22530.619141
934.465820	22755.251953
933.306641	22554.689453
932.148438	22451.287109
930.989258	22570.109375
929.830078	22492.621094
928.670898	22389.285156
927.510742	22566.259766
926.351562	22458.634766
925.191406	22592.425781
924.031250	22486.988281
922.871094	22549.628906
921.709961	22530.394531
920.548828	22265.662109
919.387695	22354.142578
918.226562	22552.382812
917.065430	22378.187500
915.903320	22462.291016
914.741211	22511.939453
913.579102	22243.193359
912.416992	22402.550781
911.254883	22381.216797
910.091797	22570.587891
908.928711	22355.765625
907.765625	22536.472656
906.601562	22362.560547
905.438477	22523.861328
904.274414	22691.546875
903.110352	22259.986328
901.946289	22539.310547
900.781250	22455.720703
899.617188	22331.376953
898.452148	22846.593750
897.287109	22477.619141
896.121094	22271.820312
894.956055	22447.875000
893.790039	22510.208984
892.624023	22686.154297
891.458008	22246.804688
890.291016	22266.273438
889.125000	22300.734375
887.958008	22022.380859
886.791016	22305.351562
885.623047	22209.140625
884.456055	22447.001953
883.288086	22432.152344
882.120117	22312.423828
880.952148	22319.001953
879.783203	22458.238281
878.615234	22550.359375
877.446289	22400.746094
876.277344	22296.097656
875.107422	22396.746094
873.938477	22217.314453
872.768555	22488.923828
871.598633	22442.029297
870.428711	22758.361328
869.257812	22529.861328
868.087891	22083.597656
866.916992	22391.275391
865.746094	22231.285156
864.575195	22346.710938
863.403320	22351.115234
862.231445	22312.843750
861.059570	22600.990234
859.887695	22709.857422
858.715820	22262.080078
857.542969	22475.447266
856.370117	22577.880859
855.197266	22584.361328
854.024414	22859.345703
852.850586	22565.353516
851.676758	22637.867188
850.503906	22203.453125
849.329102	22476.171875
848.155273	22512.464844
846.980469	22733.935547
845.805664	22785.062500
844.630859	22512.736328
843.456055	22689.404297
842.280273	22766.033203
841.105469	22863.898438
839.929688	22868.171875
838.753906	22521.669922
837.577148	22734.300781
836.400391	22759.843750
835.224609	22719.509766
834.046875	22653.697266
832.870117	22681.361328
831.693359	22594.341797
830.515625	22679.330078
829.337891	22704.847656
828.160156	22838.593750
826.981445	22543.656250
825.803711	22764.365234
824.625000	22889.539062
823.446289	22883.177734
822.266602	22645.695312
821.087891	22666.939453
819.908203	22613.988281
818.728516	22618.273438
817.548828	22696.716797
816.368164	22635.312500
815.188477	22677.712891
814.007812	23029.271484
812.827148	22646.015625
811.645508	22538.091797
810.464844	22889.478516
809.283203	22855.609375
808.101562	22777.322266
806.919922	22887.324219
805.737305	22730.808594
804.554688	22612.410156
803.373047	22688.552734
802.189453	22597.681641
801.006836	22542.769531
799.823242	22931.591797
798.640625	22910.437500
797.457031	22893.513672
796.272461	22792.126953
795.088867	22811.123047
793.904297	22768.892578
792.719727	22819.541016
791.535156	22673.923828
790.350586	22760.437500
789.165039	22859.572266
787.979492	22654.974609
786.793945	22819.457031
785.608398	22638.130859
784.421875	22777.259766
783.236328	22754.064453
782.049805	22718.234375
780.862305	22960.494141
779.675781	22787.728516
778.488281	22838.250000
777.300781	22735.050781
776.113281	22981.333984
774.925781	22570.857422
773.737305	22530.890625
772.549805	22596.134766
771.361328	22697.113281
770.171875	22753.886719
768.983398	22661.343750
767.793945	22827.423828
766.604492	22852.609375
765.415039	23001.777344
764.225586	22697.033203
763.035156	23060.453125
761.845703	22568.873047
760.655273	22743.179688
759.463867	22875.427734
758.273438	22623.464844
757.082031	22879.515625
755.890625	22829.095703
754.699219	22684.279297
753.507812	22787.042969
752.315430	22799.582031
751.123047	22860.345703
749.930664	22686.277344
748.738281	22621.269531
747.544922	22797.294922
746.351562	22677.810547
745.158203	22690.351562
743.964844	22713.359375
742.771484	22675.625000
741.577148	22786.564453
740.382812	22736.269531
739.188477	22531.109375
737.994141	22683.863281
736.798828	22863.755859
735.603516	22648.224609
734.408203	22754.855469
733.212891	22650.250000
732.016602	23032.804688
730.821289	22763.050781
729.625000	22919.734375
728.428711	22833.976562
727.231445	22894.486328
726.035156	23090.740234
724.837891	22432.792969
723.640625	22743.892578
722.442383	22777.232422
721.245117	22852.302734
720.046875	22908.560547
718.848633	22814.578125
717.650391	22693.511719
716.451172	22718.482422
715.252930	22747.613281
714.053711	22591.181641
712.854492	22882.960938
711.654297	23018.328125
710.455078	22943.193359
709.254883	23049.330078
708.054688	23086.691406
706.853516	22876.220703
705.653320	22899.023438
704.452148	22848.957031
703.250977	23025.771484
702.049805	22861.246094
700.847656	23106.648438
699.646484	22987.929688
698.444336	22935.808594
697.242188	22733.988281
696.039062	23031.203125
694.836914	23047.693359
693.633789	23062.097656
692.430664	23032.861328
691.227539	22829.128906
690.023438	23246.513672
688.819336	22882.910156
687.615234	22909.785156
686.411133	22976.089844
685.207031	22975.953125
684.001953	22876.208984
682.796875	22786.875000
681.591797	22892.560547
680.386719	23006.503906
679.180664	22910.970703
677.974609	23107.792969
676.768555	22894.125000
675.562500	22981.037109
674.356445	22910.441406
673.149414	23042.890625
671.942383	23119.365234
670.735352	23052.921875
669.527344	23307.425781
668.320312	22982.207031
667.112305	22820.615234
665.904297	23050.185547
664.695312	22952.777344
663.487305	23157.412109
662.278320	22948.337891
661.069336	23018.488281
659.860352	23169.242188
658.650391	23206.251953
657.440430	23022.117188
656.230469	22949.628906
655.020508	23013.511719
653.810547	22988.554688
652.599609	22951.216797
651.388672	23012.996094
650.177734	22777.490234
648.966797	22882.619141
647.754883	22946.435547
646.542969	23109.259766
645.331055	23216.326172
644.119141	22888.191406
642.906250	22958.142578
641.694336	22914.677734
640.481445	22978.410156
639.267578	22833.974609
638.054688	23008.960938
636.840820	22852.212891
635.626953	22891.189453
634.413086	22967.216797
633.199219	22981.449219
631.984375	22571.621094
630.769531	22861.708984
629.554688	23050.857422
628.339844	22960.132812
627.124023	23229.412109
625.909180	23163.365234
624.693359	22959.578125
623.476562	22949.111328
622.260742	23175.021484
621.043945	23078.205078
619.827148	23028.681641
618.610352	22851.808594
617.393555	23030.324219
616.175781	23177.970703
614.958008	23138.724609
613.740234	23048.175781
612.522461	23000.757812
611.303711	22982.083984
610.084961	22953.160156
608.866211	22860.656250
607.647461	23102.470703
606.427734	22936.156250
605.208984	23026.160156
603.989258	22784.083984
602.768555	22894.572266
601.548828	23189.419922
600.328125	22916.716797
599.107422	22896.035156
597.886719	22850.787109
596.666016	22883.355469
595.444336	23104.232422
594.222656	23116.271484
593.000977	22796.820312
591.779297	22954.166016
590.556641	23011.222656
589.334961	23246.177734
588.112305	23029.171875
586.888672	22775.447266
585.666016	23098.199219
584.442383	23093.865234
583.218750	23128.351562
581.995117	23226.150391
580.770508	22823.527344
579.546875	22841.707031
578.322266	23159.994141
577.097656	22978.060547
575.872070	22953.337891
574.647461	23230.613281
573.421875	23324.175781
572.196289	22936.333984
570.969727	23042.150391
569.744141	23160.158203
568.517578	23015.150391
567.291016	23082.164062
566.064453	23118.583984
564.836914	23036.820312
563.609375	22991.753906
562.381836	22999.654297
561.154297	23082.892578
559.926758	22970.654297
558.698242	22992.800781
557.469727	23012.902344
556.241211	23285.298828
555.012695	22957.462891
553.783203	22894.164062
552.553711	23058.648438
551.324219	23005.517578
550.094727	22875.160156
548.864258	23120.847656
547.633789	22988.482422
546.403320	22841.943359
545.172852	22886.400391
543.941406	22936.931641
542.710938	23109.273438
541.479492	22818.677734
540.247070	22871.220703
539.015625	22883.152344
537.783203	22637.400391
536.550781	22900.917969
535.318359	23093.347656
534.085938	22953.136719
532.852539	22849.472656
531.619141	22912.068359
530.385742	22954.371094
529.152344	22854.814453
527.917969	22625.634766
526.683594	22740.884766
525.449219	22532.060547
524.214844	22898.357422
522.979492	22643.019531
521.744141	22750.078125
520.508789	22419.988281
519.273438	22593.814453
518.037109	22698.796875
516.801758	22583.285156
515.565430	22601.275391
514.328125	22817.388672
513.091797	22623.083984
511.854492	22515.751953
510.617188	22790.353516
509.379883	22810.304688
508.142578	22733.292969
506.904297	22458.402344
505.666016	22672.230469
504.427734	22774.951172
503.189453	22621.302734
501.950195	22830.941406
500.710938	22840.761719
499.471680	22701.306641
498.232422	22523.583984
496.992188	22509.255859
495.751953	22642.103516
494.511719	22670.083984
493.271484	22442.115234
492.030273	22466.091797
490.790039	22479.986328
489.548828	22608.679688
488.306641	22674.898438
487.065430	22940.414062
485.823242	22875.697266
484.581055	22716.412109
483.338867	22641.699219
482.095703	22659.556641
480.853516	22800.109375
479.610352	22642.964844
478.367188	22707.056641
477.123047	22753.029297
475.879883	22644.218750
474.635742	22937.363281
473.391602	22806.455078
472.146484	22848.353516
470.902344	22930.402344
469.657227	22827.679688
468.412109	22692.871094
467.166016	22953.550781
465.920898	22794.683594
464.674805	22792.386719
463.428711	22914.470703
462.182617	22835.929688
460.935547	22891.779297
459.688477	22576.675781
458.441406	22606.490234
457.194336	22698.425781
455.946289	22702.152344
454.699219	22637.757812
453.451172	22905.908203
452.202148	22505.033203
450.954102	22674.988281
449.705078	22530.564453
448.456055	22970.666016
447.207031	22782.210938
445.958008	22539.800781
444.708008	22409.509766
443.458008	22341.269531
442.208008	22613.009766
440.957031	22556.751953
439.707031	22312.609375
438.456055	22344.365234
437.205078	22294.181641
435.953125	22743.476562
434.702148	22451.539062
433.450195	22265.558594
432.198242	22333.228516
430.945312	22462.759766
429.693359	22185.064453
428.440430	22512.132812
427.187500	22148.738281
425.934570	22284.183594
424.680664	22108.445312
423.426758	22295.693359
422.172852	22295.460938
420.918945	22227.455078
419.664062	22486.316406
418.410156	22454.164062
417.155273	22587.375000
415.899414	22172.787109
414.644531	22636.574219
413.388672	22783.609375
412.132812	22341.345703
410.876953	22595.855469
409.620117	22430.392578
408.364258	22515.673828
407.107422	22193.142578
405.849609	22180.984375
404.592773	22445.218750
403.334961	22029.443359
402.077148	22365.160156
400.819336	22243.671875
399.561523	22191.771484
398.302734	22243.189453
397.043945	22151.583984
395.785156	21938.880859
394.525391	22180.912109
393.266602	22355.361328
392.006836	22315.400391
390.747070	22043.292969
389.486328	22310.908203
388.226562	22098.408203
386.965820	22348.060547
385.705078	22268.478516
384.443359	22242.449219
383.182617	22537.515625
381.920898	21966.492188
380.659180	22182.248047
379.396484	21962.123047
378.134766	21987.666016
376.872070	22211.210938
375.609375	22088.210938
374.346680	21897.957031
373.083008	22194.613281
371.819336	22340.777344
370.555664	21950.777344
369.291992	22033.638672
368.027344	22092.738281
366.762695	22068.773438
365.498047	22108.072266
364.233398	22141.427734
362.968750	22032.496094
361.703125	21929.531250
360.437500	22037.957031
359.170898	22162.140625
357.905273	22059.207031
356.638672	22313.630859
355.372070	22064.646484
354.105469	22607.082031
352.837891	22494.273438
351.571289	22389.396484
350.303711	22501.505859
349.035156	22765.408203
347.767578	22287.921875
346.499023	22699.595703
345.230469	22860.826172
343.961914	22677.177734
342.692383	22822.587891
341.423828	22794.615234
340.154297	22179.812500
338.883789	22116.529297
337.614258	22320.988281
336.343750	22003.810547
335.073242	22178.693359
333.802734	21743.617188
332.532227	21544.748047
331.260742	21745.183594
329.989258	21526.724609
328.717773	21656.312500
327.445312	21652.193359
326.173828	21563.574219
324.901367	21730.406250
323.627930	21584.835938
322.355469	21696.607422
321.082031	21556.988281
319.808594	21590.189453
318.535156	21621.412109
317.261719	21752.712891
315.987305	21481.720703
314.712891	21826.830078
313.438477	21502.964844
312.164062	21791.066406
310.888672	21479.093750
309.613281	21610.265625
308.337891	21643.390625
307.061523	21562.845703
305.786133	21517.597656
304.509766	21744.638672
303.233398	21801.208984
301.956055	22073.142578
300.678711	21681.318359
299.402344	22031.460938
298.124023	21708.285156
296.846680	22167.855469
295.568359	22267.308594
294.290039	22531.013672
293.011719	22290.113281
291.733398	22195.931641
290.454102	22154.562500
289.174805	21816.150391
287.895508	21770.958984
286.616211	21678.898438
285.335938	21719.691406
284.055664	21807.333984
282.775391	21590.357422
281.494141	21531.583984
280.213867	21500.154297
278.932617	21295.064453
277.651367	21376.847656
276.369141	21261.585938
275.087891	21317.988281
273.805664	21286.625000
272.523438	21270.867188
271.240234	21272.658203
269.958008	21278.343750
268.674805	21342.476562
267.390625	21554.632812
266.107422	21490.144531
264.823242	21770.341797
263.539062	21921.939453
262.254883	22402.437500
260.970703	22909.998047
259.685547	23600.265625
258.400391	24395.320312
257.115234	25415.693359
255.830078	25926.175781
254.543945	25944.556641
253.257812	25581.923828
251.971680	24953.160156
250.684570	24274.115234
249.398438	23432.130859
248.111328	22693.417969
246.824219	22122.001953
245.536133	22020.691406
244.248047	21548.626953
242.960938	21612.443359
241.671875	21235.724609
240.383789	21190.921875
239.094727	20975.431641
237.805664	20777.476562
236.516602	20922.816406
235.227539	20804.433594
233.937500	20769.443359
232.647461	20627.876953
231.357422	20635.558594
230.066406	20784.656250
228.775391	20860.093750
227.485352	21034.263672
226.193359	20898.585938
224.902344	20462.914062
223.610352	20658.347656
222.318359	20211.277344
221.026367	20377.660156
219.733398	20180.333984
218.441406	20083.646484
217.148438	19998.595703
215.854492	20193.886719
214.561523	19720.353516
213.267578	19892.431641
211.973633	20064.441406
210.679688	19962.085938
209.384766	19558.482422
208.090820	19583.703125
206.795898	19977.654297
205.500000	19898.552734
204.205078	19678.601562
202.909180	19568.712891
201.613281	19782.955078
200.317383	19499.500000
199.020508	19630.751953
197.723633	19324.298828
196.426758	19582.753906
195.129883	19575.150391
193.832031	19617.646484
192.534180	19330.689453
191.236328	19309.650391
189.938477	19379.130859
188.639648	19231.013672
187.341797	19298.554688
186.042969	19156.281250
184.743164	19166.080078
183.444336	19245.136719
182.144531	19433.804688
180.844727	19005.052734
179.543945	19009.101562
178.244141	19230.386719
176.943359	19211.322266
175.642578	18977.033203
174.340820	19130.945312
173.040039	19063.884766
171.738281	19252.291016
170.435547	19171.789062
169.133789	19141.234375
167.831055	18989.759766
166.528320	18976.521484
165.225586	18740.708984
163.922852	19055.570312
162.619141	18704.750000
161.315430	19019.494141
160.011719	18883.550781
158.708008	19010.279297
157.403320	18889.720703
156.098633	18623.576172
154.793945	18604.673828
153.488281	18486.175781
152.182617	18524.759766
150.876953	18486.738281
149.571289	18567.419922
148.265625	18590.652344
146.958984	18412.941406
145.652344	18581.599609
144.345703	18455.607422
143.038086	18398.511719
141.730469	18249.654297
140.422852	18376.150391
139.115234	18349.683594
137.806641	18306.027344
136.498047	18159.207031
135.189453	18195.835938
133.880859	17932.585938
132.571289	17929.140625
131.262695	17641.220703
129.952148	17513.753906
128.642578	17233.658203
127.332031	16942.218750
126.021484	16708.123047
124.710938	16477.931641
123.400391	16406.111328
122.088867	16076.919922
120.777344	15412.346680
119.465820	15016.762695
