#Wave		#Intensity
1999.057617	6569.390137
1998.089844	6613.306641
1997.122070	6630.233887
1996.154297	6569.682617
1995.186523	6671.816406
1994.217773	6626.768066
1993.249023	6537.856445
1992.280273	6559.942383
1991.311523	6571.699219
1990.341797	6647.945312
1989.373047	6618.414551
1988.403320	6498.634766
1987.433594	6618.685059
1986.463867	6687.134766
1985.494141	6647.306641
1984.524414	6669.340332
1983.553711	6431.132324
1982.583008	6602.611328
1981.613281	6488.129883
1980.641602	6497.299316
1979.670898	6596.582031
1978.700195	6646.917969
1977.728516	6661.201660
1976.756836	6649.746094
1975.785156	6550.812500
1974.813477	6590.830078
1973.841797	6587.107910
1972.869141	6508.809570
1971.897461	6656.802734
1970.924805	6647.928711
1969.952148	6587.651855
1968.979492	6601.920898
1968.005859	6629.032227
1967.033203	6815.407715
1966.059570	6590.759277
1965.085938	6753.963867
1964.112305	6675.756836
1963.138672	6548.800781
1962.165039	6737.593750
1961.190430	6546.514160
1960.215820	6650.569336
1959.242188	6623.754395
1958.266602	6789.316895
1957.291992	6772.744629
1956.317383	6658.745117
1955.341797	6606.311035
1954.366211	6728.186523
1953.390625	6752.638184
1952.415039	6787.330078
1951.439453	6547.898926
1950.463867	6546.755371
1949.487305	6420.128418
1948.510742	6585.435059
1947.534180	6548.444336
1946.557617	6659.919922
1945.580078	6510.329102
1944.603516	6759.938477
1943.625977	6643.638184
1942.648438	6657.823730
1941.670898	6539.023926
1940.693359	6527.653809
1939.715820	6659.446289
1938.737305	6663.394043
1937.758789	6636.673828
1936.780273	6505.205566
1935.801758	6675.228027
1934.823242	6548.906250
1933.844727	6700.984863
1932.865234	6574.702148
1931.885742	6611.845215
1930.906250	6623.451172
1929.926758	6655.467773
1928.947266	6539.486816
1927.966797	6642.936035
1926.986328	6542.300781
1926.006836	6719.667480
1925.026367	6634.351562
1924.044922	6778.499023
1923.064453	6754.374023
1922.083008	6694.579590
1921.102539	6744.367188
1920.121094	6511.366211
1919.139648	6617.202148
1918.157227	6598.218262
1917.175781	6535.956055
1916.193359	6667.188965
1915.211914	6610.026367
1914.229492	6657.221191
1913.246094	6668.777832
1912.263672	6817.701660
1911.281250	6590.139160
1910.297852	6644.932129
1909.314453	6628.513184
1908.331055	6548.546387
1907.347656	6732.943848
1906.363281	6505.593750
1905.379883	6534.944336
1904.395508	6653.196777
1903.411133	6669.811035
1902.426758	6673.722168
1901.442383	6649.702148
1900.458008	6582.534668
1899.472656	6743.822266
1898.487305	6724.876953
1897.501953	6601.911133
1896.516602	6765.646973
1895.531250	6581.844238
1894.544922	6671.983887
1893.559570	6577.002441
1892.573242	6621.480469
1891.586914	6622.854980
1890.599609	6631.831055
1889.613281	6544.523438
1888.625977	6591.508301
1887.639648	6620.746582
1886.652344	6566.406738
1885.665039	6633.617676
1884.676758	6564.104980
1883.689453	6570.547363
1882.701172	6693.394531
1881.713867	6553.062988
1880.725586	6749.230469
1879.736328	6687.345215
1878.748047	6524.329102
1877.759766	6697.642090
1876.770508	6668.660645
1875.781250	6573.974609
1874.791992	6603.145996
1873.802734	6612.094238
1872.812500	6686.719238
1871.823242	6640.083496
1870.833008	6712.151855
1869.842773	6675.626953
1868.852539	6639.114258
1867.862305	6587.471191
1866.871094	6616.597168
1865.880859	6582.636719
1864.889648	6586.526855
1863.898438	6681.213379
1862.907227	6586.737305
1861.915039	6678.868652
1860.923828	6662.571777
1859.931641	6583.270020
1858.939453	6645.113770
1857.947266	6691.817871
1856.955078	6650.338379
1855.961914	6694.505859
1854.969727	6622.821777
1853.976562	6525.984863
1852.983398	6570.150391
1851.990234	6737.626465
1850.997070	6711.279297
1850.002930	6649.717285
1849.008789	6656.096191
1848.014648	6740.440430
1847.020508	6648.729492
1846.026367	6559.564453
1845.032227	6714.265625
1844.037109	6509.507324
1843.042969	6752.113281
1842.047852	6718.265625
1841.051758	6611.581543
1840.056641	6542.607910
1839.061523	6719.747559
1838.065430	6688.438965
1837.069336	6539.159668
1836.073242	6736.284668
1835.077148	6835.474609
1834.081055	6608.471680
1833.083984	6642.428711
1832.086914	6651.293457
1831.090820	6853.239258
1830.092773	6706.620117
1829.095703	6575.092285
1828.098633	6659.149414
1827.100586	6763.223633
1826.102539	6749.507324
1825.104492	6600.529297
1824.106445	6749.638672
1823.108398	6640.777344
1822.109375	6624.587891
1821.111328	6575.862305
1820.112305	6792.444824
1819.113281	6581.056641
1818.113281	6657.457031
1817.114258	6668.792969
1816.114258	6732.645508
1815.115234	6703.955078
1814.115234	6575.270508
1813.115234	6534.119141
1812.114258	6600.448730
1811.114258	6591.791016
1810.113281	6633.103027
1809.112305	6639.429688
1808.111328	6728.169922
1807.110352	6624.607910
1806.109375	6705.829590
1805.107422	6806.991211
1804.105469	6621.110840
1803.103516	6652.383789
1802.101562	6646.223145
1801.099609	6645.053223
1800.096680	6479.282715
1799.094727	6687.597168
1798.091797	6693.898926
1797.088867	6622.926758
1796.085938	6818.643555
1795.082031	6471.088867
1794.079102	6721.572754
1793.075195	6536.063965
1792.071289	6696.791504
1791.067383	6660.751953
1790.063477	6642.151855
1789.058594	6862.513672
1788.053711	6719.449707
1787.049805	6710.801270
1786.044922	6649.911621
1785.039062	6646.252930
1784.034180	6742.072266
1783.028320	6656.343262
1782.023438	6687.489258
1781.017578	6760.879395
1780.011719	6583.240234
1779.004883	6477.720703
1777.999023	6652.964844
1776.992188	6679.114746
1775.985352	6516.514648
1774.978516	6758.699219
1773.971680	6581.246582
1772.964844	6619.799805
1771.957031	6752.643555
1770.950195	6696.865723
1769.942383	6479.854980
1768.934570	6659.779297
1767.925781	6723.083008
1766.917969	6585.525391
1765.909180	6651.298340
1764.900391	6578.245605
1763.891602	6577.085449
1762.882812	6776.622559
1761.874023	6673.857422
1760.864258	6571.128906
1759.854492	6634.356934
1758.844727	6472.246582
1757.834961	6560.225098
1756.825195	6665.497559
1755.815430	6572.758301
1754.804688	6529.536133
1753.793945	6676.812500
1752.783203	6641.007324
1751.772461	6565.646973
1750.760742	6557.070801
1749.750000	6686.933105
1748.738281	6567.114258
1747.726562	6682.101074
1746.714844	6515.380859
1745.703125	6452.473145
1744.690430	6562.478516
1743.678711	6719.364258
1742.666016	6518.187988
1741.653320	6517.037109
1740.640625	6656.570312
1739.626953	6504.864746
1738.614258	6545.659668
1737.600586	6638.243164
1736.586914	6555.679688
1735.573242	6692.615723
1734.558594	6531.174316
1733.544922	6638.484375
1732.530273	6506.685059
1731.515625	6357.682617
1730.500977	6605.401367
1729.486328	6552.503906
1728.471680	6467.607422
1727.456055	6557.576172
1726.440430	6546.569336
1725.424805	6572.489746
1724.409180	6576.250488
1723.393555	6570.166992
1722.376953	6586.227539
1721.360352	6644.100586
1720.344727	6564.224121
1719.328125	6587.653809
1718.310547	6623.367676
1717.293945	6641.861328
1716.276367	6611.194824
1715.258789	6590.367676
1714.241211	6628.511719
1713.223633	6782.092285
1712.206055	6564.768555
1711.187500	6570.974121
1710.169922	6692.566406
1709.151367	6549.013184
1708.132812	6592.030273
1707.113281	6389.654297
1706.094727	6572.524902
1705.075195	6483.057617
1704.055664	6530.959961
1703.036133	6532.256836
1702.016602	6548.262207
1700.997070	6647.602051
1699.976562	6585.156738
1698.956055	6689.354980
1697.935547	6658.772461
1696.915039	6576.762207
1695.894531	6509.475098
1694.873047	6515.668457
1693.852539	6401.900391
1692.831055	6662.672363
1691.809570	6580.732910
1690.788086	6635.845215
1689.765625	6676.259277
1688.743164	6631.049805
1687.721680	6529.608398
1686.699219	6359.739258
1685.676758	6595.747070
1684.653320	6579.913574
1683.630859	6478.551758
1682.607422	6614.233398
1681.583984	6691.236328
1680.560547	6523.959961
1679.537109	6503.267578
1678.512695	6487.465820
1677.488281	6552.229492
1676.464844	6546.187012
1675.440430	6510.862305
1674.415039	6573.146484
1673.390625	6584.179199
1672.365234	6490.328125
1671.340820	6420.896484
1670.315430	6580.679199
1669.290039	6608.766113
1668.263672	6441.856445
1667.238281	6530.879883
1666.211914	6546.777344
1665.185547	6669.854492
1664.159180	6459.210449
1663.132812	6628.526855
1662.105469	6620.047363
1661.079102	6631.045410
1660.051758	6663.943848
1659.024414	6572.724609
1657.997070	6462.073730
1656.968750	6713.915527
1655.941406	6578.957031
1654.913086	6429.455078
1653.884766	6408.864746
1652.856445	6614.350098
1651.828125	6525.681641
1650.798828	6514.804199
1649.769531	6569.528320
1648.740234	6570.791504
1647.710938	6499.193359
1646.681641	6558.747070
1645.652344	6574.578125
1644.622070	6609.822266
1643.591797	6470.311523
1642.561523	6488.575684
1641.531250	6686.365234
1640.500977	6534.786133
1639.469727	6586.981934
1638.438477	6498.519043
1637.408203	6625.857910
1636.375977	6656.192871
1635.344727	6628.352539
1634.313477	6590.829102
1633.281250	6579.968262
1632.249023	6537.621582
1631.216797	6667.238281
1630.184570	6547.406738
1629.151367	6522.034180
1628.119141	6424.055176
1627.085938	6529.397949
1626.052734	6506.461426
1625.019531	6594.816895
1623.985352	6414.654297
1622.952148	6423.187988
1621.917969	6506.674805
1620.883789	6590.131348
1619.849609	6586.543457
1618.815430	6570.873047
1617.780273	6514.132324
1616.745117	6348.700684
1615.709961	6494.909668
1614.674805	6624.161621
1613.639648	6601.253418
1612.604492	6484.204590
1611.568359	6526.497559
1610.532227	6571.188477
1609.496094	6490.397949
1608.459961	6378.275391
1607.423828	6536.329102
1606.386719	6470.056152
1605.349609	6367.640625
1604.312500	6540.074707
1603.275391	6512.398926
1602.238281	6547.387695
1601.200195	6572.726074
1600.163086	6617.326660
1599.125000	6654.685547
1598.086914	6581.259277
1597.047852	6440.445312
1596.009766	6523.552246
1594.970703	6517.577637
1593.931641	6492.354492
1592.892578	6527.288086
1591.853516	6535.748535
1590.814453	6517.750000
1589.774414	6473.306641
1588.734375	6481.771484
1587.694336	6514.270508
1586.654297	6546.758301
1585.614258	6442.266602
1584.573242	6611.697754
1583.532227	6586.500000
1582.492188	6554.105957
1581.450195	6540.933105
1580.409180	6561.375488
1579.368164	6480.995117
1578.326172	6479.840820
1577.284180	6416.299316
1576.242188	6511.120117
1575.200195	6404.419434
1574.157227	6515.995605
1573.115234	6567.586914
1572.072266	6489.700684
1571.029297	6445.399902
1569.985352	6434.665527
1568.942383	6373.616699
1567.898438	6585.695801
1566.855469	6440.807617
1565.811523	6480.371582
1564.767578	6567.809570
1563.722656	6391.879883
1562.678711	6519.991211
1561.633789	6231.656250
1560.588867	6484.169922
1559.543945	6425.600098
1558.499023	6515.344238
1557.453125	6499.834473
1556.407227	6560.840820
1555.361328	6452.096191
1554.315430	6364.901367
1553.269531	6516.707520
1552.223633	6618.284180
1551.176758	6351.941895
1550.129883	6448.734375
1549.083008	6631.459961
1548.036133	6553.875000
1546.989258	6416.638672
1545.941406	6422.654297
1544.893555	6555.141113
1543.845703	6534.884766
1542.797852	6521.791504
1541.750000	6492.007812
1540.701172	6436.003906
1539.652344	6437.239746
1538.603516	6483.765625
1537.554688	6501.675293
1536.505859	6617.276367
1535.456055	6470.765137
1534.407227	6348.126465
1533.357422	6601.825684
1532.307617	6441.107910
1531.256836	6613.753906
1530.207031	6426.906738
1529.156250	6485.257324
1528.105469	6500.755859
1527.054688	6368.746582
1526.003906	6410.424805
1524.953125	6423.549316
1523.901367	6291.624023
1522.849609	6532.991211
1521.797852	6348.800293
1520.746094	6442.727051
1519.694336	6398.806641
1518.641602	6335.896484
1517.588867	6446.400879
1516.536133	6490.370605
1515.483398	6375.240234
1514.430664	6338.491699
1513.376953	6370.588867
1512.323242	6473.867676
1511.269531	6301.876953
1510.215820	6435.970215
1509.162109	6418.216797
1508.107422	6246.327637
1507.053711	6311.599121
1505.999023	6386.329102
1504.944336	6323.563477
1503.888672	6426.701172
1502.833984	6491.893066
1501.778320	6305.959473
1500.722656	6361.674805
1499.666992	6253.976074
1498.611328	6359.400391
1497.555664	6287.247559
1496.499023	6430.495605
1495.442383	6273.166992
1494.385742	6267.313477
1493.329102	6363.177734
1492.271484	6333.658203
1491.214844	6233.210449
1490.157227	6305.386230
1489.099609	6301.894531
1488.041992	6291.313477
1486.983398	6382.342773
1485.925781	6390.650879
1484.867188	6271.401855
1483.808594	6220.684082
1482.750000	6221.932129
1481.691406	6303.448242
1480.631836	6210.263672
1479.572266	6265.791992
1478.512695	6189.164062
1477.453125	6265.908203
1476.393555	6236.481445
1475.333008	6320.264160
1474.273438	6234.248535
1473.212891	6254.349609
1472.152344	6208.445801
1471.090820	6311.025391
1470.030273	6373.512695
1468.968750	6266.361328
1467.907227	6234.619141
1466.845703	6268.826660
1465.784180	6201.777344
1464.721680	6247.748047
1463.660156	6310.178223
1462.597656	6360.818848
1461.535156	6227.921387
1460.472656	6257.386719
1459.409180	6235.097656
1458.345703	6255.144531
1457.283203	6237.565430
1456.219727	6267.006836
1455.155273	6171.872070
1454.091797	6332.907227
1453.027344	6249.541016
1451.963867	6177.949707
1450.899414	6176.842285
1449.833984	6203.913574
1448.769531	6334.276367
1447.704102	6175.868164
1446.639648	6137.209961
1445.574219	6168.960938
1444.507812	6308.619629
1443.442383	6323.907715
1442.375977	6214.892578
1441.310547	6227.846680
1440.244141	6125.920410
1439.177734	6333.436035
1438.110352	6090.913086
1437.043945	6171.830566
1435.976562	6210.549316
1434.909180	6197.723633
1433.841797	6149.774414
1432.773438	6195.500000
1431.706055	6175.660156
1430.637695	6092.629883
1429.569336	5990.908203
1428.500977	6144.258301
1427.432617	6203.979004
1426.363281	6128.019531
1425.294922	6171.351074
1424.225586	6086.071777
1423.156250	6145.758789
1422.085938	6294.240234
1421.016602	6131.868164
1419.946289	6149.458496
1418.875977	6206.754395
1417.805664	6105.209961
1416.735352	6213.866211
1415.664062	6170.724609
1414.593750	6155.610352
1413.522461	6163.840332
1412.451172	6237.404785
1411.379883	6189.623047
1410.307617	6046.219727
1409.235352	6152.416016
1408.164062	6186.287598
1407.090820	6224.810059
1406.018555	6079.171387
1404.946289	6122.359375
1403.873047	6100.288086
1402.799805	5996.684082
1401.726562	6067.814453
1400.653320	6034.119629
1399.580078	6126.173828
1398.505859	6066.871582
1397.431641	6116.988281
1396.357422	6113.561523
1395.283203	6133.403320
1394.208008	6143.932617
1393.133789	6028.856445
1392.058594	6295.208496
1390.983398	6138.293945
1389.908203	6002.357910
1388.832031	6140.734863
1387.756836	6195.402832
1386.680664	6203.582520
1385.604492	6039.854980
1384.528320	6287.287109
1383.451172	6132.892090
1382.375000	6152.684570
1381.297852	6123.721191
1380.220703	6020.498535
1379.143555	5989.248535
1378.065430	6106.495605
1376.988281	6049.724609
1375.910156	6071.828613
1374.832031	6207.547363
1373.753906	6222.659180
1372.674805	6094.048828
1371.596680	6111.492188
1370.517578	6075.634766
1369.438477	6134.776367
1368.359375	6251.805664
1367.279297	6155.727051
1366.200195	6221.768066
1365.120117	6109.523438
1364.040039	6110.738281
1362.959961	6192.950684
1361.878906	6069.202148
1360.798828	6028.780762
1359.717773	6104.023926
1358.636719	6153.801758
1357.555664	6196.624512
1356.473633	6001.320312
1355.392578	6046.465820
1354.310547	6107.771484
1353.228516	6210.644043
1352.146484	5969.275391
1351.063477	6118.328613
1349.981445	6218.833496
1348.898438	6238.492188
1347.815430	6036.534668
1346.732422	6190.083496
1345.649414	6165.891602
1344.565430	6199.388184
1343.481445	6133.681152
1342.397461	6130.269043
1341.313477	6085.351074
1340.229492	6091.170410
1339.144531	6166.140137
1338.059570	6167.333008
1336.974609	6186.959473
1335.889648	6259.566895
1334.804688	6124.838379
1333.718750	6261.915039
1332.632812	6115.721680
1331.546875	6241.238770
1330.460938	6164.154297
1329.375000	6031.864746
1328.288086	6157.328613
1327.201172	6216.031250
1326.114258	6150.506836
1325.027344	6197.690430
1323.940430	6205.769043
1322.852539	6066.717285
1321.764648	6313.855469
1320.676758	6326.503906
1319.588867	6139.254395
1318.500977	6122.065918
1317.412109	6075.024902
1316.324219	6202.525391
1315.235352	6157.782227
1314.145508	5984.503906
1313.056641	6155.558594
1311.966797	6117.731934
1310.876953	6008.794434
1309.787109	6071.938477
1308.697266	6075.428711
1307.607422	6117.899902
1306.516602	6137.428711
1305.425781	5985.032227
1304.334961	6107.709473
1303.244141	6168.474121
1302.153320	5979.498535
1301.061523	6138.758789
1299.969727	5993.369141
1298.877930	6077.006836
1297.786133	6014.096680
1296.694336	5944.341797
1295.601562	5902.074219
1294.508789	6042.870117
1293.416016	6089.818848
1292.323242	5837.118164
1291.230469	5934.397949
1290.136719	5988.200195
1289.042969	5998.547852
1287.949219	6036.318848
1286.855469	5898.114746
1285.760742	6061.553711
1284.666992	5905.119629
1283.572266	5844.668457
1282.477539	5962.356445
1281.381836	5933.880371
1280.287109	5980.744141
1279.191406	5886.087891
1278.095703	5955.761719
1277.000000	5829.202637
1275.904297	5850.958984
1274.808594	5913.758789
1273.711914	5857.962891
1272.615234	5856.902832
1271.518555	5935.623047
1270.421875	5711.205566
1269.324219	5801.315918
1268.226562	5807.100586
1267.129883	5783.271973
1266.031250	5729.845703
1264.933594	5888.195312
1263.835938	5725.495117
1262.737305	5760.876465
1261.638672	5930.512207
1260.540039	5820.223633
1259.441406	5796.420898
1258.341797	5783.999023
1257.242188	5646.507812
1256.142578	5888.766113
1255.042969	5767.217773
1253.943359	5741.171875
1252.842773	5808.304688
1251.743164	5782.260254
1250.642578	5713.064941
1249.541016	5800.606445
1248.440430	5631.518066
1247.338867	5746.286133
1246.238281	5747.515137
1245.136719	5492.285156
1244.034180	5563.901855
1242.932617	5701.285645
1241.831055	5620.861328
1240.728516	5769.523926
1239.625977	5739.000977
1238.522461	5703.954590
1237.419922	5675.720703
1236.316406	5803.867676
1235.213867	5680.460449
1234.110352	5668.103027
1233.005859	5658.015625
1231.902344	5550.552734
1230.797852	5692.190918
1229.693359	5704.741211
1228.588867	5667.492676
1227.484375	5695.883301
1226.379883	5642.811523
1225.274414	5497.010742
1224.168945	5575.173828
1223.063477	5709.841797
1221.958008	5695.240723
1220.851562	5630.913086
1219.746094	5690.914062
1218.639648	5642.428223
1217.533203	5767.923340
1216.425781	5611.015137
1215.319336	5521.916992
1214.211914	5620.269043
1213.104492	5725.357422
1211.997070	5582.113281
1210.889648	5522.422852
1209.781250	5539.471191
1208.672852	5599.377441
1207.564453	5661.517090
1206.456055	5608.620117
1205.347656	5702.301758
1204.238281	5586.294434
1203.128906	5578.518066
1202.019531	5561.729980
1200.910156	5689.148438
1199.800781	5645.313477
1198.690430	5718.613770
1197.580078	5710.819336
1196.469727	5624.225586
1195.359375	5494.892090
1194.249023	5613.179199
1193.137695	5612.159180
1192.026367	5593.140625
1190.915039	5704.596680
1189.803711	5561.870605
1188.691406	5574.351562
1187.580078	5580.083008
1186.467773	5549.847168
1185.355469	5623.002441
1184.242188	5570.299805
1183.129883	5567.040527
1182.016602	5552.551270
1180.903320	5603.194336
1179.790039	5608.911621
1178.676758	5603.401855
1177.562500	5676.452637
1176.449219	5626.049316
1175.334961	5559.958008
1174.219727	5509.593750
1173.105469	5533.263672
1171.990234	5610.745117
1170.875977	5589.545410
1169.760742	5570.595215
1168.644531	5632.337402
1167.529297	5461.006348
1166.413086	5516.024414
1165.297852	5584.462402
1164.181641	5516.256836
1163.064453	5539.884277
1161.948242	5570.219727
1160.831055	5524.437500
1159.713867	5680.093262
1158.596680	5524.664062
1157.479492	5593.011719
1156.362305	5430.944336
1155.244141	5590.975586
1154.125977	5471.450195
1153.007812	5503.987793
1151.888672	5628.154785
1150.770508	5618.190918
1149.651367	5521.090820
1148.532227	5566.998047
1147.413086	5467.708008
1146.293945	5408.650879
1145.173828	5427.760254
1144.053711	5531.690430
1142.933594	5374.448730
1141.813477	5328.839355
1140.693359	5341.254883
1139.572266	5594.581055
1138.451172	5361.611816
1137.330078	5507.806641
1136.208984	5444.377441
1135.086914	5405.491211
1133.965820	5478.051758
1132.843750	5358.955566
1131.721680	5525.067383
1130.599609	5475.056641
1129.476562	5298.122559
1128.353516	5355.048828
1127.230469	5280.606934
1126.107422	5306.354004
1124.984375	5349.895020
1123.860352	5440.144531
1122.737305	5439.152344
1121.613281	5395.900391
1120.488281	5370.454590
1119.364258	5380.592285
1118.239258	5361.826660
1117.115234	5349.735840
1115.990234	5473.201172
1114.864258	5398.884277
1113.739258	5397.899414
1112.613281	5445.775391
1111.487305	5489.192383
1110.361328	5377.183594
1109.235352	5318.489258
1108.108398	5213.209961
1106.982422	5443.026855
1105.855469	5353.292480
1104.728516	5358.969238
1103.600586	5397.909668
1102.473633	5354.795410
1101.345703	5347.166992
1100.217773	5421.551758
1099.089844	5464.883789
1097.960938	5426.219238
1096.833008	5442.950195
1095.704102	5360.005859
1094.575195	5383.386230
1093.446289	5384.616699
1092.316406	5306.154785
1091.187500	5340.597656
1090.057617	5348.473633
1088.927734	5241.298828
1087.796875	5362.003906
1086.666992	5252.653320
1085.536133	5402.058105
1084.405273	5458.552246
1083.274414	5274.088867
1082.143555	5306.275391
1081.011719	5232.388184
1079.879883	5341.892578
1078.748047	5226.057617
1077.616211	5326.689453
1076.484375	5259.475098
1075.351562	5307.081055
1074.218750	5264.173828
1073.085938	5190.387207
1071.953125	5301.963867
1070.820312	5219.372559
1069.686523	5238.268555
1068.552734	5411.520020
1067.418945	5353.206055
1066.284180	5257.438477
1065.150391	5408.550781
1064.015625	5187.204590
1062.880859	5272.179199
1061.746094	5282.228027
1060.611328	5461.855469
1059.475586	5260.477539
1058.339844	5321.158691
1057.204102	5315.782715
1056.068359	5416.043945
1054.932617	5157.612305
1053.795898	5308.464355
1052.659180	5300.894043
1051.522461	5200.962402
1050.385742	5272.568848
1049.248047	5201.256836
1048.110352	5226.679688
1046.972656	5355.376465
1045.834961	5290.679199
1044.697266	5311.677734
1043.558594	5306.312500
1042.419922	5257.030273
1041.281250	5236.307617
1040.142578	5318.763184
1039.003906	5212.442383
1037.864258	5308.037109
1036.724609	5282.932129
1035.584961	5145.966797
1034.445312	5223.975586
1033.304688	5332.653320
1032.165039	5151.907715
1031.024414	5223.295898
1029.883789	5248.636719
1028.742188	5317.790039
1027.601562	5218.233887
1026.459961	5164.710449
1025.318359	5207.561523
1024.176758	5337.976074
1023.034180	5207.841309
1021.892578	5263.792480
1020.750000	5114.023926
1019.607422	5257.486328
1018.463867	5197.460449
1017.321289	5141.830078
1016.177734	5204.300781
1015.034180	5100.591309
1013.890625	5239.551758
1012.747070	5183.953613
1011.602539	5163.337402
1010.458008	5129.619629
1009.313477	5213.865234
1008.168945	5184.518555
1007.024414	5150.814941
1005.878906	5088.743652
1004.733398	5175.116699
1003.587891	5182.895996
1002.442383	5197.218262
1001.295898	5124.275391
1000.149414	5269.466797
999.002930	5100.587891
997.856445	5245.729492
996.709961	5079.096680
995.562500	5152.266113
994.415039	5229.766602
993.267578	5161.267578
992.120117	5184.280762
990.972656	5231.241699
989.824219	5136.649902
988.675781	5168.362305
987.527344	5191.356445
986.378906	5266.572266
985.229492	5085.007324
984.080078	5138.459961
982.930664	5157.091797
981.781250	4984.345215
980.631836	5226.947754
979.481445	5193.378906
978.331055	5242.414551
977.180664	5100.201660
976.030273	5068.846680
974.879883	5211.285156
973.728516	5075.670898
972.577148	5113.824707
971.425781	5301.768066
970.273438	5070.701660
969.122070	5080.620605
967.969727	5181.670898
966.817383	5128.650391
965.665039	5114.692871
964.511719	5161.463379
963.359375	5156.177734
962.206055	5068.513672
961.052734	5065.414062
959.898438	5127.327637
958.745117	5046.217285
957.590820	5153.603516
956.436523	5130.996094
955.282227	5132.217773
954.127930	5168.080078
952.972656	5216.916992
951.817383	5092.591797
950.662109	5100.310547
949.506836	5209.710449
948.350586	5161.163086
947.195312	5103.982910
946.039062	5247.917969
944.882812	5112.913574
943.725586	5274.085449
942.569336	5225.569824
941.412109	5155.464844
940.254883	5098.347168
939.097656	5142.766602
937.939453	5217.402832
936.782227	5056.666992
935.624023	5120.497070
934.465820	5117.395996
933.306641	5075.452637
932.148438	5130.613281
930.989258	5164.182129
929.830078	5122.252930
928.670898	5097.589355
927.510742	5200.135254
926.351562	5205.643555
925.191406	5127.099121
924.031250	5095.987793
922.871094	4998.102539
921.709961	5025.182617
920.548828	4983.338867
919.387695	5150.367188
918.226562	5119.278809
917.065430	5086.049316
915.903320	5027.008301
914.741211	5125.054199
913.579102	5139.167480
912.416992	4884.427246
911.254883	5137.271973
910.091797	4990.125000
908.928711	4997.803223
907.765625	5005.478027
906.601562	5034.638184
905.438477	5059.490234
904.274414	4914.640137
903.110352	5038.294922
901.946289	5028.776367
900.781250	4858.250000
899.617188	4983.992188
898.452148	5023.847168
897.287109	4982.152832
896.121094	4991.959473
894.956055	5042.514160
893.790039	5073.750000
892.624023	5040.652832
891.458008	5033.291504
890.291016	4995.926758
889.125000	5005.718750
887.958008	4972.657227
886.791016	5057.421875
885.623047	4990.096191
884.456055	4916.371094
883.288086	4998.957520
882.120117	4970.208008
880.952148	5050.613281
879.783203	4981.209961
878.615234	4973.872070
877.446289	5039.258789
876.277344	5029.773926
875.107422	5073.745117
873.938477	4933.855469
872.768555	4997.063477
871.598633	5088.028320
870.428711	4956.759277
869.257812	4985.749023
868.087891	5018.999512
866.916992	5060.778809
865.746094	5012.874023
864.575195	5086.656738
863.403320	5019.557129
862.231445	4993.023926
861.059570	4868.364746
859.887695	5080.762695
858.715820	5015.845703
857.542969	4961.613281
856.370117	5003.331543
855.197266	4964.041016
854.024414	4978.039551
852.850586	4989.902344
851.676758	4948.505371
850.503906	4913.512207
849.329102	4929.638672
848.155273	4971.307617
846.980469	5085.334473
845.805664	4920.518066
844.630859	4983.442871
843.456055	5025.069824
842.280273	4924.167480
841.105469	4961.536133
839.929688	5126.467773
838.753906	5002.217285
837.577148	5067.181641
836.400391	4894.109863
835.224609	5018.561523
834.046875	5202.447754
832.870117	4967.853027
831.693359	5073.109375
830.515625	4995.736816
829.337891	5071.230469
828.160156	5025.721680
826.981445	4978.107910
825.803711	5030.224609
824.625000	5020.808105
823.446289	5002.911621
822.266602	4936.252930
821.087891	5073.137695
819.908203	5125.187500
818.728516	5122.118164
817.548828	4885.980957
816.368164	5096.916992
815.188477	4943.474609
814.007812	5084.439453
812.827148	5032.683105
811.645508	5002.114258
810.464844	4971.556641
809.283203	5137.803711
808.101562	5064.918457
806.919922	5006.866699
805.737305	4976.329590
804.554688	4996.551758
803.373047	5116.128906
802.189453	4935.514648
801.006836	5061.397949
799.823242	5018.200684
798.640625	4964.456543
797.457031	4955.086914
796.272461	4990.066895
795.088867	5088.375000
793.904297	4990.326172
792.719727	5035.833008
791.535156	4992.694824
790.350586	4962.230957
789.165039	5056.232910
787.979492	5025.768066
786.793945	4940.490723
785.608398	4945.897949
784.421875	5022.969727
783.236328	4979.888184
782.049805	4972.642578
780.862305	4994.892578
779.675781	4975.008301
778.488281	5070.955078
777.300781	5015.270508
776.113281	4974.341797
774.925781	4920.800293
773.737305	4936.720703
772.549805	5022.064453
771.361328	5010.613770
770.171875	4978.135742
768.983398	4970.902344
767.793945	4934.238770
766.604492	4924.914062
765.415039	4940.811523
764.225586	4839.036133
763.035156	5113.341309
761.845703	5005.270020
760.655273	4886.738281
759.463867	5062.198730
758.273438	5002.479004
757.082031	4842.036621
755.890625	4948.157715
754.699219	4863.314941
753.507812	4921.145508
752.315430	4981.051270
751.123047	4873.183105
749.930664	4897.435059
748.738281	4898.620117
747.544922	4897.708984
746.351562	4909.369629
745.158203	5006.918945
743.964844	4884.502930
742.771484	5030.186035
741.577148	5012.499512
740.382812	5005.286621
739.188477	4952.030273
737.994141	4961.571777
736.798828	4772.348633
735.603516	4919.979980
734.408203	4896.058594
733.212891	4876.327637
732.016602	4902.598145
730.821289	4956.032715
729.625000	4861.064941
728.428711	4956.276855
727.231445	4882.234863
726.035156	4868.793457
724.837891	4869.975098
723.640625	5011.047852
722.442383	5045.602539
721.245117	4827.598145
720.046875	4866.347656
718.848633	5017.747070
717.650391	4979.264160
716.451172	4834.429688
715.252930	4829.358398
714.053711	4922.275879
712.854492	4994.313477
711.654297	4949.617676
710.455078	4840.344727
709.254883	4887.357910
708.054688	5036.414551
706.853516	5060.465820
705.653320	4986.648438
704.452148	5002.372559
703.250977	4951.487793
702.049805	4883.974609
700.847656	4891.385742
699.646484	4932.077148
698.444336	4966.513672
697.242188	5067.477539
696.039062	4931.396973
694.836914	4945.027344
693.633789	4950.339355
692.430664	5009.673340
691.227539	4902.788574
690.023438	5020.266602
688.819336	4932.109375
687.615234	5018.393066
686.411133	4984.242188
685.207031	4985.387207
684.001953	5017.659180
682.796875	4942.031738
681.591797	4930.737305
680.386719	4931.891113
679.180664	4989.030273
677.974609	4954.927734
676.768555	4844.144043
675.562500	4870.181152
674.356445	4914.855957
673.149414	5029.950195
671.942383	4929.590820
670.735352	5063.276367
669.527344	4863.564453
668.320312	5032.403809
667.112305	4909.350586
665.904297	4922.918945
664.695312	4961.309082
663.487305	4945.901855
662.278320	4949.114258
661.069336	4933.714844
659.860352	4926.590820
658.650391	4933.937988
657.440430	4908.216309
656.230469	4851.510742
655.020508	4951.830078
653.810547	4998.410156
652.599609	5007.800781
651.388672	4876.789551
650.177734	4943.999512
648.966797	4943.075195
647.754883	4989.611816
646.542969	4780.301270
645.331055	4824.788086
644.119141	4982.687988
642.906250	4992.065918
641.694336	4896.298340
640.481445	4953.096680
639.267578	4865.615234
638.054688	4852.342285
636.840820	4991.518066
635.626953	4947.331055
634.413086	4843.440918
633.199219	4821.945312
631.984375	4853.979004
630.769531	4807.791992
629.554688	5014.724121
628.339844	4978.810547
627.124023	4819.491211
625.909180	4925.531738
624.693359	4895.822266
623.476562	4977.138672
622.260742	4974.151367
621.043945	5049.256348
619.827148	5005.163086
618.610352	5072.016602
617.393555	5044.366211
616.175781	4998.244141
614.958008	5095.857910
613.740234	5152.379883
612.522461	5075.477539
611.303711	5125.825684
610.084961	4970.996094
608.866211	5052.112793
607.647461	4909.659668
606.427734	5005.109863
605.208984	4942.670410
603.989258	4941.744141
602.768555	4934.669922
601.548828	4847.690918
600.328125	4805.812012
599.107422	4890.932129
597.886719	4998.545898
596.666016	4762.162109
595.444336	4894.322754
594.222656	4852.472656
593.000977	4929.318848
591.779297	4918.165039
590.556641	4833.379395
589.334961	4832.472656
588.112305	4790.672852
586.888672	4842.925781
585.666016	4889.026855
584.442383	4908.544922
583.218750	4919.882812
581.995117	4773.923828
580.770508	4983.392090
579.546875	4937.533203
578.322266	4803.901855
577.097656	4851.989746
575.872070	4853.119629
574.647461	4860.370605
573.421875	4792.135742
572.196289	4823.871094
570.969727	4951.441895
569.744141	4962.745605
568.517578	4863.963379
567.291016	4895.660645
566.064453	4945.685547
564.836914	4873.447754
563.609375	4856.236328
562.381836	4873.653809
561.154297	4925.680664
559.926758	4749.670898
558.698242	4881.084961
557.469727	4792.658691
556.241211	4795.827637
555.012695	4923.089355
553.783203	4802.160645
552.553711	4915.138184
551.324219	4912.181152
550.094727	4842.142578
548.864258	4749.773438
547.633789	4840.322266
546.403320	4782.525879
545.172852	4862.877441
543.941406	4837.592285
542.710938	4796.072754
541.479492	4787.050293
540.247070	4727.287109
539.015625	4862.365723
537.783203	4818.842285
536.550781	4828.079102
535.318359	4723.731445
534.085938	4716.759277
532.852539	4726.009277
531.619141	4743.363770
530.385742	4643.163086
529.152344	4842.894531
527.917969	4825.775391
526.683594	4764.100586
525.449219	4888.764648
524.214844	4689.415039
522.979492	4724.971680
521.744141	4718.010254
520.508789	4785.925781
519.273438	4708.140625
518.037109	4806.375488
516.801758	4920.753418
515.565430	4721.658691
514.328125	4783.443359
513.091797	4756.264648
511.854492	4783.662598
510.617188	4780.741211
509.379883	4686.910645
508.142578	4748.642578
506.904297	4786.117676
505.666016	4775.120605
504.427734	4687.416504
503.189453	4825.797363
501.950195	4778.475586
500.710938	4858.276855
499.471680	4754.485352
498.232422	4785.857910
496.992188	4893.842285
495.751953	4775.989746
494.511719	4754.932617
493.271484	4741.944824
492.030273	4688.663574
490.790039	4852.969727
489.548828	4769.475098
488.306641	4712.190430
487.065430	4725.395020
485.823242	4877.491699
484.581055	4816.193359
483.338867	4813.272461
482.095703	4850.589844
480.853516	4751.112305
479.610352	4667.760742
478.367188	4737.255371
477.123047	4734.351074
475.879883	4743.507324
474.635742	4736.583496
473.391602	4836.149902
472.146484	4664.486816
470.902344	4848.383301
469.657227	4618.548828
468.412109	4776.284180
467.166016	4849.652832
465.920898	4782.508301
464.674805	4761.540039
463.428711	4734.560547
462.182617	4715.614258
460.935547	4722.745605
459.688477	4733.883789
458.441406	4690.891602
457.194336	4718.065430
455.946289	4833.400391
454.699219	4748.339355
453.451172	4819.555176
452.202148	4646.407227
450.954102	4689.581543
449.705078	4784.791992
448.456055	4721.837402
447.207031	4562.846191
445.958008	4652.022949
444.708008	4727.162109
443.458008	4718.268066
442.208008	4801.365234
440.957031	4602.520996
439.707031	4615.643555
438.456055	4664.736328
437.205078	4633.880859
435.953125	4724.905273
434.702148	4604.163574
433.450195	4787.025391
432.198242	4718.231445
430.945312	4693.382812
429.693359	4606.668945
428.440430	4637.727051
427.187500	4574.998047
425.934570	4631.982422
424.680664	4688.944824
423.426758	4682.075684
422.172852	4719.069824
420.918945	4833.788574
419.664062	4703.333008
418.410156	4857.862305
417.155273	4894.794434
415.899414	4919.761230
414.644531	4974.589844
413.388672	4977.629883
412.132812	4984.650391
410.876953	5069.289062
409.620117	4935.004395
408.364258	4900.247559
407.107422	4750.132324
405.849609	4824.806641
404.592773	4839.799805
403.334961	4691.768555
402.077148	4828.028320
400.819336	4646.270508
399.561523	4665.259277
398.302734	4582.927734
397.043945	4536.377441
395.785156	4630.835449
394.525391	4608.118164
393.266602	4519.903809
392.006836	4691.711426
390.747070	4599.545410
389.486328	4503.446777
388.226562	4696.978027
386.965820	4660.390625
385.705078	4586.144531
384.443359	4611.046387
383.182617	4631.974121
381.920898	4559.756348
380.659180	4531.153809
379.396484	4520.390137
378.134766	4511.610840
376.872070	4587.979980
375.609375	4589.089355
374.346680	4431.847168
373.083008	4650.676758
371.819336	4633.965332
370.555664	4565.825195
369.291992	4547.157715
368.027344	4659.012695
366.762695	4596.837402
365.498047	4558.406250
364.233398	4436.981445
362.968750	4590.268066
361.703125	4504.444336
360.437500	4556.920898
359.170898	4552.105957
357.905273	4428.822266
356.638672	4439.826172
355.372070	4519.906738
354.105469	4503.261230
352.837891	4605.002441
351.571289	4606.100586
350.303711	4435.611328
349.035156	4480.122070
347.767578	4386.609863
346.499023	4409.430176
345.230469	4436.182617
343.961914	4453.073242
342.692383	4367.516602
341.423828	4484.864746
340.154297	4590.352539
338.883789	4433.937988
337.614258	4446.874512
336.343750	4467.678711
335.073242	4413.699707
333.802734	4528.936523
332.532227	4321.538574
331.260742	4385.616211
329.989258	4410.343750
328.717773	4389.846191
327.445312	4449.942383
326.173828	4492.329102
324.901367	4465.932617
323.627930	4410.080078
322.355469	4430.845215
321.082031	4363.237793
319.808594	4448.791992
318.535156	4449.908691
317.261719	4470.649414
315.987305	4546.323242
314.712891	4531.725098
313.438477	4528.901367
312.164062	4482.935547
310.888672	4482.082031
309.613281	4524.355469
308.337891	4578.371582
307.061523	4608.852539
305.786133	4600.138672
304.509766	4742.254883
303.233398	4743.310059
301.956055	4828.561523
300.678711	5093.886230
299.402344	4979.392090
298.124023	4953.003418
296.846680	5192.717285
295.568359	5287.581055
294.290039	5335.469238
293.011719	5381.383301
291.733398	5221.997070
290.454102	4955.163086
289.174805	4752.922852
287.895508	4650.411621
286.616211	4461.981445
285.335938	4388.861816
284.055664	4388.025391
282.775391	4361.806641
281.494141	4444.915039
280.213867	4403.081543
278.932617	4423.707031
277.651367	4309.706543
276.369141	4269.872559
275.087891	4339.266602
273.805664	4350.138184
272.523438	4296.672363
271.240234	4321.191406
269.958008	4285.289551
268.674805	4237.710938
267.390625	4266.122559
266.107422	4339.318359
264.823242	4280.072754
263.539062	4296.777832
262.254883	4249.241699
260.970703	4267.892090
259.685547	4276.806152
258.400391	4155.375000
257.115234	4362.699707
255.830078	4359.922363
254.543945	4333.814453
253.257812	4255.229980
251.971680	4336.046387
250.684570	4323.559570
249.398438	4316.905273
248.111328	4218.959473
246.824219	4301.662109
245.536133	4370.741211
244.248047	4191.305176
242.960938	4147.803711
241.671875	4280.910645
240.383789	4186.962891
239.094727	4238.538574
237.805664	4189.242188
236.516602	4231.101562
235.227539	4247.741211
233.937500	4151.950195
232.647461	4364.334473
231.357422	4402.252441
230.066406	4548.641602
228.775391	4818.933594
227.485352	4910.964355
226.193359	4844.196777
224.902344	4560.649414
223.610352	4383.657227
222.318359	4212.537109
221.026367	4184.646484
219.733398	4098.737793
218.441406	4190.781250
217.148438	4091.368896
215.854492	4106.051758
214.561523	4174.846680
213.267578	4025.250977
211.973633	4049.597412
210.679688	4075.866211
209.384766	3951.481689
208.090820	4027.963379
206.795898	4127.582520
205.500000	4045.723633
204.205078	3954.246582
202.909180	4036.457031
201.613281	4039.542480
200.317383	3940.403564
199.020508	3987.858154
197.723633	3879.126709
196.426758	3965.127197
195.129883	3937.385986
193.832031	3853.775879
192.534180	3918.539307
191.236328	3875.413330
189.938477	3957.479492
188.639648	3993.304199
187.341797	3984.838867
186.042969	3918.636475
184.743164	3844.761963
183.444336	3907.514893
182.144531	3893.301025
180.844727	3796.395020
179.543945	3895.654541
178.244141	3877.605469
176.943359	3792.290039
175.642578	3962.596680
174.340820	3869.611816
173.040039	3909.210449
171.738281	3822.032959
170.435547	3884.668457
169.133789	3920.401123
167.831055	3760.329590
166.528320	3861.322998
165.225586	3770.399658
163.922852	3794.615723
162.619141	3772.789307
161.315430	3795.077637
160.011719	3901.718506
158.708008	3784.036621
157.403320	3773.727539
156.098633	3870.729736
154.793945	3779.942627
153.488281	3813.695557
152.182617	3724.868896
150.876953	3772.022217
149.571289	3786.612793
148.265625	3860.531738
146.958984	3804.295166
145.652344	3715.554688
144.345703	3716.754150
143.038086	3639.539307
141.730469	3809.022461
140.422852	3672.553467
139.115234	3729.190918
137.806641	3778.162109
136.498047	3662.794678
135.189453	3814.916992
133.880859	3625.098145
132.571289	3670.231934
131.262695	3530.153320
129.952148	3497.024414
128.642578	3557.423828
127.332031	3425.079590
126.021484	3374.819580
124.710938	3242.561035
123.400391	3302.962402
122.088867	3153.608398
120.777344	3198.752930
119.465820	3026.604736
