#Wave		#Intensity
1999.057617	42121.078125
1998.089844	42400.078125
1997.122070	42056.914062
1996.154297	42098.652344
1995.186523	42388.242188
1994.217773	42491.859375
1993.249023	42249.574219
1992.280273	42420.269531
1991.311523	42077.453125
1990.341797	41915.335938
1989.373047	41993.144531
1988.403320	42168.917969
1987.433594	42275.011719
1986.463867	42123.277344
1985.494141	42087.582031
1984.524414	42361.136719
1983.553711	42266.144531
1982.583008	42318.023438
1981.613281	41782.628906
1980.641602	42241.457031
1979.670898	42550.789062
1978.700195	42412.074219
1977.728516	42487.039062
1976.756836	42402.425781
1975.785156	42456.777344
1974.813477	42204.980469
1973.841797	41775.792969
1972.869141	41984.519531
1971.897461	42586.566406
1970.924805	42478.875000
1969.952148	42751.625000
1968.979492	42425.503906
1968.005859	42341.015625
1967.033203	42212.886719
1966.059570	42572.812500
1965.085938	42575.652344
1964.112305	42578.488281
1963.138672	42396.488281
1962.165039	41996.382812
1961.190430	42397.085938
1960.215820	41850.863281
1959.242188	42236.054688
1958.266602	42228.679688
1957.291992	42008.453125
1956.317383	42360.082031
1955.341797	42447.535156
1954.366211	42542.644531
1953.390625	42642.847656
1952.415039	42056.335938
1951.439453	42417.882812
1950.463867	42256.792969
1949.487305	42669.398438
1948.510742	42751.558594
1947.534180	42237.210938
1946.557617	42421.796875
1945.580078	42370.878906
1944.603516	42524.667969
1943.625977	42125.832031
1942.648438	42757.910156
1941.670898	42658.375000
1940.693359	42653.476562
1939.715820	42288.121094
1938.737305	42426.421875
1937.758789	41969.234375
1936.780273	42002.777344
1935.801758	42110.390625
1934.823242	41704.578125
1933.844727	42427.652344
1932.865234	41932.558594
1931.885742	42637.468750
1930.906250	42430.925781
1929.926758	42114.718750
1928.947266	42469.667969
1927.966797	42056.621094
1926.986328	42447.160156
1926.006836	42383.632812
1925.026367	42241.085938
1924.044922	42131.722656
1923.064453	42211.015625
1922.083008	41793.339844
1921.102539	42045.917969
1920.121094	42206.695312
1919.139648	42240.062500
1918.157227	41797.203125
1917.175781	42248.195312
1916.193359	41792.761719
1915.211914	42289.406250
1914.229492	42271.828125
1913.246094	41623.246094
1912.263672	42399.488281
1911.281250	42542.132812
1910.297852	41731.089844
1909.314453	42295.863281
1908.331055	42456.242188
1907.347656	42204.804688
1906.363281	41940.750000
1905.379883	41996.925781
1904.395508	41722.835938
1903.411133	42259.070312
1902.426758	42033.273438
1901.442383	41944.664062
1900.458008	41957.628906
1899.472656	42049.265625
1898.487305	41813.507812
1897.501953	41874.691406
1896.516602	41593.378906
1895.531250	42047.710938
1894.544922	41629.527344
1893.559570	41749.007812
1892.573242	41219.476562
1891.586914	41916.867188
1890.599609	42094.515625
1889.613281	41947.785156
1888.625977	41788.437500
1887.639648	42009.066406
1886.652344	42242.281250
1885.665039	42085.492188
1884.676758	41868.003906
1883.689453	41713.863281
1882.701172	42020.343750
1881.713867	41714.421875
1880.725586	41646.394531
1879.736328	41950.191406
1878.748047	41687.425781
1877.759766	42352.664062
1876.770508	42198.617188
1875.781250	41673.085938
1874.791992	41572.277344
1873.802734	41835.332031
1872.812500	42014.929688
1871.823242	41684.269531
1870.833008	41949.683594
1869.842773	42066.042969
1868.852539	41995.554688
1867.862305	42066.429688
1866.871094	41953.062500
1865.880859	41675.734375
1864.889648	41837.437500
1863.898438	41986.468750
1862.907227	42148.058594
1861.915039	41601.109375
1860.923828	41936.640625
1859.931641	41815.863281
1858.939453	41417.933594
1857.947266	42138.800781
1856.955078	41713.238281
1855.961914	41617.765625
1854.969727	41698.593750
1853.976562	41572.941406
1852.983398	41726.750000
1851.990234	42001.312500
1850.997070	41905.863281
1850.002930	42467.113281
1849.008789	41710.027344
1848.014648	41355.621094
1847.020508	41891.523438
1846.026367	41705.656250
1845.032227	41607.835938
1844.037109	41871.964844
1843.042969	41834.457031
1842.047852	42078.351562
1841.051758	41832.320312
1840.056641	41835.015625
1839.061523	42005.957031
1838.065430	41739.976562
1837.069336	41720.089844
1836.073242	41361.390625
1835.077148	41913.707031
1834.081055	41831.074219
1833.083984	42051.992188
1832.086914	41588.140625
1831.090820	42027.179688
1830.092773	41967.144531
1829.095703	41781.792969
1828.098633	41669.183594
1827.100586	41742.042969
1826.102539	41481.660156
1825.104492	41722.359375
1824.106445	41447.039062
1823.108398	41780.304688
1822.109375	42060.875000
1821.111328	41850.722656
1820.112305	41743.250000
1819.113281	41933.589844
1818.113281	41706.050781
1817.114258	41811.281250
1816.114258	42001.503906
1815.115234	41771.566406
1814.115234	41781.718750
1813.115234	41846.859375
1812.114258	41914.472656
1811.114258	41449.820312
1810.113281	41722.343750
1809.112305	41715.003906
1808.111328	41912.453125
1807.110352	41530.523438
1806.109375	41697.976562
1805.107422	41795.476562
1804.105469	41853.007812
1803.103516	41608.589844
1802.101562	41351.785156
1801.099609	41850.867188
1800.096680	41713.812500
1799.094727	41823.664062
1798.091797	41566.992188
1797.088867	41432.550781
1796.085938	41343.011719
1795.082031	41918.804688
1794.079102	41458.000000
1793.075195	41418.320312
1792.071289	41520.605469
1791.067383	41687.589844
1790.063477	41436.273438
1789.058594	41687.843750
1788.053711	41389.324219
1787.049805	41324.800781
1786.044922	41198.105469
1785.039062	41454.507812
1784.034180	41024.425781
1783.028320	41106.710938
1782.023438	41599.167969
1781.017578	41131.996094
1780.011719	41258.949219
1779.004883	41092.652344
1777.999023	41304.031250
1776.992188	41314.136719
1775.985352	41517.945312
1774.978516	41344.269531
1773.971680	40741.167969
1772.964844	41265.156250
1771.957031	40796.289062
1770.950195	41352.339844
1769.942383	41198.679688
1768.934570	41087.242188
1767.925781	40839.441406
1766.917969	41422.359375
1765.909180	40872.144531
1764.900391	40941.769531
1763.891602	41157.585938
1762.882812	41140.417969
1761.874023	40845.792969
1760.864258	41002.058594
1759.854492	41539.640625
1758.844727	40791.992188
1757.834961	40514.960938
1756.825195	41260.246094
1755.815430	40906.511719
1754.804688	40869.601562
1753.793945	40953.921875
1752.783203	40531.167969
1751.772461	40751.523438
1750.760742	40761.640625
1749.750000	41115.367188
1748.738281	41014.187500
1747.726562	40678.281250
1746.714844	40752.632812
1745.703125	40570.046875
1744.690430	41051.921875
1743.678711	40773.035156
1742.666016	40568.312500
1741.653320	40790.726562
1740.640625	40650.246094
1739.626953	40509.812500
1738.614258	40561.871094
1737.600586	40848.261719
1736.586914	40244.179688
1735.573242	40478.734375
1734.558594	40508.566406
1733.544922	40452.109375
1732.530273	40373.488281
1731.515625	40341.714844
1730.500977	40381.398438
1729.486328	40357.019531
1728.471680	40409.000000
1727.456055	40163.000000
1726.440430	40355.328125
1725.424805	40717.437500
1724.409180	40382.906250
1723.393555	40191.210938
1722.376953	40385.851562
1721.360352	40457.429688
1720.344727	40617.519531
1719.328125	40398.867188
1718.310547	40546.613281
1717.293945	40446.035156
1716.276367	40195.574219
1715.258789	40365.390625
1714.241211	40537.601562
1713.223633	40211.101562
1712.206055	40248.195312
1711.187500	40422.789062
1710.169922	40459.828125
1709.151367	40305.394531
1708.132812	40622.222656
1707.113281	40411.371094
1706.094727	40217.769531
1705.075195	40308.769531
1704.055664	40335.972656
1703.036133	40113.058594
1702.016602	40390.347656
1700.997070	39988.562500
1699.976562	40233.910156
1698.956055	40322.355469
1697.935547	40672.898438
1696.915039	40219.902344
1695.894531	40283.804688
1694.873047	39804.101562
1693.852539	40191.207031
1692.831055	40242.835938
1691.809570	40199.003906
1690.788086	40270.183594
1689.765625	40490.570312
1688.743164	40111.613281
1687.721680	40011.582031
1686.699219	40285.683594
1685.676758	40398.339844
1684.653320	39863.226562
1683.630859	40286.277344
1682.607422	40367.105469
1681.583984	39737.003906
1680.560547	39800.796875
1679.537109	40086.796875
1678.512695	40160.269531
1677.488281	39987.152344
1676.464844	40238.792969
1675.440430	39960.781250
1674.415039	39997.621094
1673.390625	40039.324219
1672.365234	40327.355469
1671.340820	39576.425781
1670.315430	39666.941406
1669.290039	39913.437500
1668.263672	39867.367188
1667.238281	39679.968750
1666.211914	39758.210938
1665.185547	39997.203125
1664.159180	39641.820312
1663.132812	39668.882812
1662.105469	39610.722656
1661.079102	39645.082031
1660.051758	39606.410156
1659.024414	39283.039062
1657.997070	39538.839844
1656.968750	39599.937500
1655.941406	39702.363281
1654.913086	39867.972656
1653.884766	39537.539062
1652.856445	39763.886719
1651.828125	39440.878906
1650.798828	39555.382812
1649.769531	39300.550781
1648.740234	39381.027344
1647.710938	39381.324219
1646.681641	39410.761719
1645.652344	39391.628906
1644.622070	39476.878906
1643.591797	39302.410156
1642.561523	39164.402344
1641.531250	39480.125000
1640.500977	38910.359375
1639.469727	39153.253906
1638.438477	39299.066406
1637.408203	39229.054688
1636.375977	39161.492188
1635.344727	39425.972656
1634.313477	39118.507812
1633.281250	39075.222656
1632.249023	38981.082031
1631.216797	39117.046875
1630.184570	39279.597656
1629.151367	39180.625000
1628.119141	39021.171875
1627.085938	38973.101562
1626.052734	38760.507812
1625.019531	38494.761719
1623.985352	39281.289062
1622.952148	38664.882812
1621.917969	38653.175781
1620.883789	38871.136719
1619.849609	38661.195312
1618.815430	38531.078125
1617.780273	38828.671875
1616.745117	38809.695312
1615.709961	38655.460938
1614.674805	38747.601562
1613.639648	38868.683594
1612.604492	38656.578125
1611.568359	38835.554688
1610.532227	38437.710938
1609.496094	38464.656250
1608.459961	38392.683594
1607.423828	38537.808594
1606.386719	38489.960938
1605.349609	38439.718750
1604.312500	38476.273438
1603.275391	38300.714844
1602.238281	38633.683594
1601.200195	38361.781250
1600.163086	38523.582031
1599.125000	38145.824219
1598.086914	38490.613281
1597.047852	38592.113281
1596.009766	38383.039062
1594.970703	37995.937500
1593.931641	38326.066406
1592.892578	38571.871094
1591.853516	38502.464844
1590.814453	38399.410156
1589.774414	37853.933594
1588.734375	38164.554688
1587.694336	38136.128906
1586.654297	38071.660156
1585.614258	38278.742188
1584.573242	38214.269531
1583.532227	38195.453125
1582.492188	38587.328125
1581.450195	38570.855469
1580.409180	38287.894531
1579.368164	38122.652344
1578.326172	38087.066406
1577.284180	37907.515625
1576.242188	37960.742188
1575.200195	38762.332031
1574.157227	38330.937500
1573.115234	38187.437500
1572.072266	38286.117188
1571.029297	38058.777344
1569.985352	38248.515625
1568.942383	38057.199219
1567.898438	37940.218750
1566.855469	38328.671875
1565.811523	37926.699219
1564.767578	37994.167969
1563.722656	37824.605469
1562.678711	37949.507812
1561.633789	37782.406250
1560.588867	38311.632812
1559.543945	38388.535156
1558.499023	37654.574219
1557.453125	37968.312500
1556.407227	38028.488281
1555.361328	37973.898438
1554.315430	37885.863281
1553.269531	37950.800781
1552.223633	38063.496094
1551.176758	37851.265625
1550.129883	38293.539062
1549.083008	37959.554688
1548.036133	37403.644531
1546.989258	37993.757812
1545.941406	37996.527344
1544.893555	37930.093750
1543.845703	37830.277344
1542.797852	37990.507812
1541.750000	37914.566406
1540.701172	37666.957031
1539.652344	37564.871094
1538.603516	38096.890625
1537.554688	37465.664062
1536.505859	37883.132812
1535.456055	37647.656250
1534.407227	37633.789062
1533.357422	37822.363281
1532.307617	37110.781250
1531.256836	37825.527344
1530.207031	37278.441406
1529.156250	37557.375000
1528.105469	37650.605469
1527.054688	37660.539062
1526.003906	37549.152344
1524.953125	37390.242188
1523.901367	37507.210938
1522.849609	37628.890625
1521.797852	37462.914062
1520.746094	37522.765625
1519.694336	37352.113281
1518.641602	37678.035156
1517.588867	37509.785156
1516.536133	37101.742188
1515.483398	37223.332031
1514.430664	37458.824219
1513.376953	37229.019531
1512.323242	37452.558594
1511.269531	37142.160156
1510.215820	37204.320312
1509.162109	37178.695312
1508.107422	37039.250000
1507.053711	37217.570312
1505.999023	37026.011719
1504.944336	36550.101562
1503.888672	37136.000000
1502.833984	36904.277344
1501.778320	37063.503906
1500.722656	36907.664062
1499.666992	37372.300781
1498.611328	37140.695312
1497.555664	36984.921875
1496.499023	36871.804688
1495.442383	36642.773438
1494.385742	36733.222656
1493.329102	36904.062500
1492.271484	36930.574219
1491.214844	36715.878906
1490.157227	36931.546875
1489.099609	36731.109375
1488.041992	36658.363281
1486.983398	36668.343750
1485.925781	36288.503906
1484.867188	36544.203125
1483.808594	36943.875000
1482.750000	36786.140625
1481.691406	36694.566406
1480.631836	36827.265625
1479.572266	36334.511719
1478.512695	36318.570312
1477.453125	36338.019531
1476.393555	36418.789062
1475.333008	36291.996094
1474.273438	36268.992188
1473.212891	36194.128906
1472.152344	36258.359375
1471.090820	36009.136719
1470.030273	36113.429688
1468.968750	36269.511719
1467.907227	36149.957031
1466.845703	35837.339844
1465.784180	36280.632812
1464.721680	36382.421875
1463.660156	36479.464844
1462.597656	35865.792969
1461.535156	36174.644531
1460.472656	36179.925781
1459.409180	35858.277344
1458.345703	35924.750000
1457.283203	36075.839844
1456.219727	36069.375000
1455.155273	35689.214844
1454.091797	36166.890625
1453.027344	35751.605469
1451.963867	35825.062500
1450.899414	36084.035156
1449.833984	35485.820312
1448.769531	36108.660156
1447.704102	35789.988281
1446.639648	35731.941406
1445.574219	35519.039062
1444.507812	35442.289062
1443.442383	35428.894531
1442.375977	35549.187500
1441.310547	35650.671875
1440.244141	35430.937500
1439.177734	35480.835938
1438.110352	35685.394531
1437.043945	35751.628906
1435.976562	35585.910156
1434.909180	35949.609375
1433.841797	35294.457031
1432.773438	35501.199219
1431.706055	35408.210938
1430.637695	35881.683594
1429.569336	35489.109375
1428.500977	35141.132812
1427.432617	35572.285156
1426.363281	35156.585938
1425.294922	35522.101562
1424.225586	35597.558594
1423.156250	35654.285156
1422.085938	35271.585938
1421.016602	34872.664062
1419.946289	35195.835938
1418.875977	35091.406250
1417.805664	35311.656250
1416.735352	35316.988281
1415.664062	35341.000000
1414.593750	35145.570312
1413.522461	34891.863281
1412.451172	35347.628906
1411.379883	34939.992188
1410.307617	35050.347656
1409.235352	35246.953125
1408.164062	35023.761719
1407.090820	34756.355469
1406.018555	35176.675781
1404.946289	35014.210938
1403.873047	35273.550781
1402.799805	35094.812500
1401.726562	34748.429688
1400.653320	35023.976562
1399.580078	34857.019531
1398.505859	34890.332031
1397.431641	35065.613281
1396.357422	35059.308594
1395.283203	34776.117188
1394.208008	34718.687500
1393.133789	34740.355469
1392.058594	34557.367188
1390.983398	34704.613281
1389.908203	34902.945312
1388.832031	34915.261719
1387.756836	35025.175781
1386.680664	35200.101562
1385.604492	34617.660156
1384.528320	35029.503906
1383.451172	34939.601562
1382.375000	34673.277344
1381.297852	35177.738281
1380.220703	34839.515625
1379.143555	34791.476562
1378.065430	34557.847656
1376.988281	34829.988281
1375.910156	34570.921875
1374.832031	34703.832031
1373.753906	34718.449219
1372.674805	34797.968750
1371.596680	34907.582031
1370.517578	34289.566406
1369.438477	34686.507812
1368.359375	34884.101562
1367.279297	34766.656250
1366.200195	34815.968750
1365.120117	34536.519531
1364.040039	34842.781250
1362.959961	34540.281250
1361.878906	34603.476562
1360.798828	34682.839844
1359.717773	34838.503906
1358.636719	34587.093750
1357.555664	34770.460938
1356.473633	34717.960938
1355.392578	34725.574219
1354.310547	34938.855469
1353.228516	35052.707031
1352.146484	34847.722656
1351.063477	34843.753906
1349.981445	35010.667969
1348.898438	34858.902344
1347.815430	35037.292969
1346.732422	34894.808594
1345.649414	35366.187500
1344.565430	34946.828125
1343.481445	35090.468750
1342.397461	35137.187500
1341.313477	35310.714844
1340.229492	35258.238281
1339.144531	35533.105469
1338.059570	35360.757812
1336.974609	35432.726562
1335.889648	35371.046875
1334.804688	35507.480469
1333.718750	35544.832031
1332.632812	35278.226562
1331.546875	35656.328125
1330.460938	35403.605469
1329.375000	35641.164062
1328.288086	35724.468750
1327.201172	36058.503906
1326.114258	35649.476562
1325.027344	35302.687500
1323.940430	35689.496094
1322.852539	35637.078125
1321.764648	35412.292969
1320.676758	35461.054688
1319.588867	35677.523438
1318.500977	35549.332031
1317.412109	35405.105469
1316.324219	35405.605469
1315.235352	35415.285156
1314.145508	35645.332031
1313.056641	35246.425781
1311.966797	35285.957031
1310.876953	35022.621094
1309.787109	35108.054688
1308.697266	35062.722656
1307.607422	34751.414062
1306.516602	35063.816406
1305.425781	34431.699219
1304.334961	34535.488281
1303.244141	34572.785156
1302.153320	34385.550781
1301.061523	34361.015625
1299.969727	33883.031250
1298.877930	34534.070312
1297.786133	34408.781250
1296.694336	34205.714844
1295.601562	34082.820312
1294.508789	34117.847656
1293.416016	33551.195312
1292.323242	33794.445312
1291.230469	33662.558594
1290.136719	33761.648438
1289.042969	33556.660156
1287.949219	33109.468750
1286.855469	33702.207031
1285.760742	33796.644531
1284.666992	33411.328125
1283.572266	33409.851562
1282.477539	33349.003906
1281.381836	33393.203125
1280.287109	33069.863281
1279.191406	33157.457031
1278.095703	33208.507812
1277.000000	33273.226562
1275.904297	33214.742188
1274.808594	33039.964844
1273.711914	33036.265625
1272.615234	33057.644531
1271.518555	32784.972656
1270.421875	32758.527344
1269.324219	32880.199219
1268.226562	32600.867188
1267.129883	32572.189453
1266.031250	32693.826172
1264.933594	32840.464844
1263.835938	32677.437500
1262.737305	32066.072266
1261.638672	32255.978516
1260.540039	32354.800781
1259.441406	32276.146484
1258.341797	32106.539062
1257.242188	32225.798828
1256.142578	32283.625000
1255.042969	32295.964844
1253.943359	31983.283203
1252.842773	32354.710938
1251.743164	31874.000000
1250.642578	31929.560547
1249.541016	32221.300781
1248.440430	32006.552734
1247.338867	32121.082031
1246.238281	31983.605469
1245.136719	31998.236328
1244.034180	31833.597656
1242.932617	31925.384766
1241.831055	31930.939453
1240.728516	31825.365234
1239.625977	31694.884766
1238.522461	31605.257812
1237.419922	31529.261719
1236.316406	31602.865234
1235.213867	31805.591797
1234.110352	31523.443359
1233.005859	31558.498047
1231.902344	31407.839844
1230.797852	31411.201172
1229.693359	31489.265625
1228.588867	31562.773438
1227.484375	31744.875000
1226.379883	31304.707031
1225.274414	31667.757812
1224.168945	31460.718750
1223.063477	31396.216797
1221.958008	31241.300781
1220.851562	31280.841797
1219.746094	31216.404297
1218.639648	31188.142578
1217.533203	30999.482422
1216.425781	30937.384766
1215.319336	31114.705078
1214.211914	31246.798828
1213.104492	31243.384766
1211.997070	31269.314453
1210.889648	31270.408203
1209.781250	31294.064453
1208.672852	31231.982422
1207.564453	31133.833984
1206.456055	31010.912109
1205.347656	31316.437500
1204.238281	31031.210938
1203.128906	30921.894531
1202.019531	31026.701172
1200.910156	31253.138672
1199.800781	30992.904297
1198.690430	31230.525391
1197.580078	31218.095703
1196.469727	31030.052734
1195.359375	30900.607422
1194.249023	30660.921875
1193.137695	31071.650391
1192.026367	31108.751953
1190.915039	30950.136719
1189.803711	30962.503906
1188.691406	31053.568359
1187.580078	31002.958984
1186.467773	30790.525391
1185.355469	30735.486328
1184.242188	30889.435547
1183.129883	30888.312500
1182.016602	30860.234375
1180.903320	30650.259766
1179.790039	30819.824219
1178.676758	30780.544922
1177.562500	30465.201172
1176.449219	30693.050781
1175.334961	30741.318359
1174.219727	30789.566406
1173.105469	30833.310547
1171.990234	30677.455078
1170.875977	30539.589844
1169.760742	30507.134766
1168.644531	30685.369141
1167.529297	30578.947266
1166.413086	30665.242188
1165.297852	30706.703125
1164.181641	30380.845703
1163.064453	30545.498047
1161.948242	30154.859375
1160.831055	30435.890625
1159.713867	30401.255859
1158.596680	30236.851562
1157.479492	30267.142578
1156.362305	30402.550781
1155.244141	30282.958984
1154.125977	30020.308594
1153.007812	30173.568359
1151.888672	30025.021484
1150.770508	30055.310547
1149.651367	29873.322266
1148.532227	29899.158203
1147.413086	29989.753906
1146.293945	29921.763672
1145.173828	30081.535156
1144.053711	29942.115234
1142.933594	29738.021484
1141.813477	29650.037109
1140.693359	29941.371094
1139.572266	29757.460938
1138.451172	29883.625000
1137.330078	29623.972656
1136.208984	29707.751953
1135.086914	29637.695312
1133.965820	29630.064453
1132.843750	29651.402344
1131.721680	29561.339844
1130.599609	29379.982422
1129.476562	29661.914062
1128.353516	29538.494141
1127.230469	29568.728516
1126.107422	29558.884766
1124.984375	29522.339844
1123.860352	29439.080078
1122.737305	29876.408203
1121.613281	29466.154297
1120.488281	29707.621094
1119.364258	29539.894531
1118.239258	29543.398438
1117.115234	29402.431641
1115.990234	29343.736328
1114.864258	29376.152344
1113.739258	29406.333984
1112.613281	29292.140625
1111.487305	29411.146484
1110.361328	29470.164062
1109.235352	29298.304688
1108.108398	29250.791016
1106.982422	29325.332031
1105.855469	29371.005859
1104.728516	29256.957031
1103.600586	29482.257812
1102.473633	29288.404297
1101.345703	29495.878906
1100.217773	29561.421875
1099.089844	29810.873047
1097.960938	29637.037109
1096.833008	29611.687500
1095.704102	29121.220703
1094.575195	29226.626953
1093.446289	29241.214844
1092.316406	29045.498047
1091.187500	29212.826172
1090.057617	29265.023438
1088.927734	29427.824219
1087.796875	28924.736328
1086.666992	29018.974609
1085.536133	29104.333984
1084.405273	29099.013672
1083.274414	28919.072266
1082.143555	29068.488281
1081.011719	29131.673828
1079.879883	29340.644531
1078.748047	28884.681641
1077.616211	28733.646484
1076.484375	28887.371094
1075.351562	28723.140625
1074.218750	28645.052734
1073.085938	28924.490234
1071.953125	28996.425781
1070.820312	28841.115234
1069.686523	28752.029297
1068.552734	28914.363281
1067.418945	28924.509766
1066.284180	28934.648438
1065.150391	28761.853516
1064.015625	28822.699219
1062.880859	28548.640625
1061.746094	28862.818359
1060.611328	28914.796875
1059.475586	28557.193359
1058.339844	28463.906250
1057.204102	28645.794922
1056.068359	28638.351562
1054.932617	28661.714844
1053.795898	28421.074219
1052.659180	28884.373047
1051.522461	28489.839844
1050.385742	28733.080078
1049.248047	28615.705078
1048.110352	28707.173828
1046.972656	28668.955078
1045.834961	28217.689453
1044.697266	28810.031250
1043.558594	28411.613281
1042.419922	28489.853516
1041.281250	28328.753906
1040.142578	28108.445312
1039.003906	28166.941406
1037.864258	28490.929688
1036.724609	28038.152344
1035.584961	28388.363281
1034.445312	28282.279297
1033.304688	28176.232422
1032.165039	28094.337891
1031.024414	28194.400391
1029.883789	28040.212891
1028.742188	28258.564453
1027.601562	27841.535156
1026.459961	28055.460938
1025.318359	28234.269531
1024.176758	27778.058594
1023.034180	28103.517578
1021.892578	27894.816406
1020.750000	27985.986328
1019.607422	27674.550781
1018.463867	27931.974609
1017.321289	27754.072266
1016.177734	27808.023438
1015.034180	27750.451172
1013.890625	27671.041016
1012.747070	27733.716797
1011.602539	27853.177734
1010.458008	27821.851562
1009.313477	27847.328125
1008.168945	27879.343750
1007.024414	27826.191406
1005.878906	27897.494141
1004.733398	27663.193359
1003.587891	27734.496094
1002.442383	27183.937500
1001.295898	27482.173828
1000.149414	27361.531250
999.002930	27437.193359
997.856445	27645.824219
996.709961	27488.156250
995.562500	27197.599609
994.415039	27164.277344
993.267578	27464.304688
992.120117	27600.847656
990.972656	27179.806641
989.824219	27192.234375
988.675781	27428.894531
987.527344	27373.792969
986.378906	27233.835938
985.229492	27285.406250
984.080078	27323.902344
982.930664	27455.912109
981.781250	26983.314453
980.631836	27369.724609
979.481445	27034.267578
978.331055	27344.451172
977.180664	27376.369141
976.030273	27277.912109
974.879883	27227.281250
973.728516	27246.167969
972.577148	27551.679688
971.425781	27372.927734
970.273438	27272.386719
969.122070	27382.396484
967.969727	27284.056641
966.817383	27192.261719
965.665039	26866.236328
964.511719	27312.382812
963.359375	27339.882812
962.206055	27083.380859
961.052734	27097.906250
959.898438	26958.562500
958.745117	27096.605469
957.590820	26972.474609
956.436523	27210.091797
955.282227	27105.472656
954.127930	26853.664062
952.972656	27017.568359
951.817383	26878.410156
950.662109	26903.757812
949.506836	26916.115234
948.350586	26889.529297
947.195312	26880.255859
946.039062	27141.271484
944.882812	26790.369141
943.725586	26884.865234
942.569336	26752.410156
941.412109	27034.859375
940.254883	26885.140625
939.097656	26649.078125
937.939453	26812.613281
936.782227	26943.699219
935.624023	26608.453125
934.465820	26793.484375
933.306641	26825.234375
932.148438	27159.025391
930.989258	26780.837891
929.830078	26571.013672
928.670898	26611.400391
927.510742	26731.541016
926.351562	26715.837891
925.191406	26633.330078
924.031250	26436.648438
922.871094	26505.023438
921.709961	26812.462891
920.548828	26654.617188
919.387695	26397.783203
918.226562	26392.917969
917.065430	26538.716797
915.903320	26495.089844
914.741211	26438.566406
913.579102	26517.585938
912.416992	26054.580078
911.254883	26404.587891
910.091797	26191.169922
908.928711	26390.550781
907.765625	26329.804688
906.601562	26264.781250
905.438477	26367.355469
904.274414	26182.058594
903.110352	25998.976562
901.946289	26243.255859
900.781250	26339.314453
899.617188	25980.294922
898.452148	26160.058594
897.287109	26116.609375
896.121094	26060.302734
894.956055	26034.044922
893.790039	26067.837891
892.624023	26155.220703
891.458008	25766.677734
890.291016	25999.822266
889.125000	26187.878906
887.958008	25928.091797
886.791016	26023.980469
885.623047	25674.365234
884.456055	25930.859375
883.288086	25699.136719
882.120117	25921.281250
880.952148	25969.996094
879.783203	25734.111328
878.615234	25900.501953
877.446289	25934.216797
876.277344	25989.304688
875.107422	25777.105469
873.938477	26050.244141
872.768555	25763.304688
871.598633	25536.302734
870.428711	25638.410156
869.257812	25563.177734
868.087891	25780.570312
866.916992	25895.384766
865.746094	25858.574219
864.575195	25762.007812
863.403320	25674.011719
862.231445	25626.589844
861.059570	25583.449219
859.887695	25877.335938
858.715820	25744.595703
857.542969	25605.505859
856.370117	25790.500000
855.197266	25809.175781
854.024414	25633.919922
852.850586	25863.546875
851.676758	25496.625000
850.503906	25777.304688
849.329102	25623.474609
848.155273	25627.250000
846.980469	25809.828125
845.805664	25713.537109
844.630859	25627.919922
843.456055	25610.412109
842.280273	25743.931641
841.105469	25705.138672
839.929688	25579.181641
838.753906	25997.498047
837.577148	25737.626953
836.400391	25639.357422
835.224609	25813.083984
834.046875	25527.894531
832.870117	25572.017578
831.693359	25713.806641
830.515625	25621.994141
829.337891	25663.949219
828.160156	25582.791016
826.981445	25618.369141
825.803711	25475.722656
824.625000	25644.937500
823.446289	25750.466797
822.266602	25764.779297
821.087891	25520.447266
819.908203	25806.101562
818.728516	25392.312500
817.548828	25671.527344
816.368164	25687.955078
815.188477	25517.986328
814.007812	25636.080078
812.827148	25271.396484
811.645508	25527.083984
810.464844	25532.933594
809.283203	25244.646484
808.101562	25756.189453
806.919922	25393.931641
805.737305	25306.740234
804.554688	25524.070312
803.373047	25217.019531
802.189453	25413.144531
801.006836	25351.371094
799.823242	25336.103516
798.640625	25352.527344
797.457031	25320.367188
796.272461	25199.521484
795.088867	25370.089844
793.904297	25124.730469
792.719727	25447.207031
791.535156	25163.941406
790.350586	25342.822266
789.165039	25217.882812
787.979492	25181.566406
786.793945	25090.439453
785.608398	25033.076172
784.421875	25083.230469
783.236328	25232.417969
782.049805	25333.085938
780.862305	25242.007812
779.675781	25041.437500
778.488281	25177.880859
777.300781	25044.769531
776.113281	25254.837891
774.925781	25008.105469
773.737305	24719.376953
772.549805	24859.955078
771.361328	25038.345703
770.171875	25254.523438
768.983398	24816.664062
767.793945	24904.556641
766.604492	24965.087891
765.415039	24765.001953
764.225586	25029.351562
763.035156	25035.203125
761.845703	25003.244141
760.655273	24794.894531
759.463867	24811.283203
758.273438	24899.035156
757.082031	24770.574219
755.890625	24805.839844
754.699219	24878.855469
753.507812	24989.601562
752.315430	24336.892578
751.123047	24745.455078
749.930664	24841.484375
748.738281	24968.917969
747.544922	24534.650391
746.351562	24651.615234
745.158203	24703.593750
743.964844	24711.564453
742.771484	24799.109375
741.577148	24587.210938
740.382812	24724.986328
739.188477	24766.431641
737.994141	24673.931641
736.798828	24654.693359
735.603516	24775.615234
734.408203	24860.933594
733.212891	24452.734375
732.016602	24441.910156
730.821289	24577.406250
729.625000	24788.087891
728.428711	24610.044922
727.231445	24703.650391
726.035156	24717.847656
724.837891	24633.888672
723.640625	24443.472656
722.442383	24614.275391
721.245117	24580.468750
720.046875	24571.716797
718.848633	24621.384766
717.650391	24560.476562
716.451172	24618.466797
715.252930	24503.363281
714.053711	24425.828125
712.854492	24583.863281
711.654297	26209.007812
710.455078	28312.789062
709.254883	24661.783203
708.054688	24496.804688
706.853516	24402.689453
705.653320	24529.314453
704.452148	24751.648438
703.250977	24547.224609
702.049805	24336.634766
700.847656	24550.554688
699.646484	24645.824219
698.444336	24439.488281
697.242188	24545.138672
696.039062	24673.617188
694.836914	24785.416016
693.633789	24498.154297
692.430664	24433.326172
691.227539	24501.478516
690.023438	24579.988281
688.819336	24066.617188
687.615234	24498.146484
686.411133	24464.511719
685.207031	24594.855469
684.001953	24552.912109
682.796875	24513.058594
681.591797	24504.333984
680.386719	24275.771484
679.180664	24576.054688
677.974609	24386.953125
676.768555	24579.316406
675.562500	24321.890625
674.356445	24108.074219
673.149414	24366.669922
671.942383	24440.828125
670.735352	24554.302734
669.527344	24767.117188
668.320312	24478.886719
667.112305	24453.617188
665.904297	24641.496094
664.695312	24560.341797
663.487305	24708.824219
662.278320	24544.958984
661.069336	24509.355469
659.860352	24494.437500
658.650391	24510.531250
657.440430	24508.015625
656.230469	24484.839844
655.020508	24199.306641
653.810547	24293.925781
652.599609	24374.050781
651.388672	24299.294922
650.177734	24509.439453
648.966797	24312.912109
647.754883	24106.138672
646.542969	24101.630859
645.331055	24076.496094
644.119141	24152.425781
642.906250	24232.449219
641.694336	24133.082031
640.481445	24229.566406
639.267578	24130.236328
638.054688	24082.453125
636.840820	24042.925781
635.626953	23927.203125
634.413086	24103.943359
633.199219	24284.734375
631.984375	23872.603516
630.769531	24065.714844
629.554688	24205.251953
628.339844	24066.992188
627.124023	24185.906250
625.909180	24607.091797
624.693359	24532.574219
623.476562	24478.640625
622.260742	24829.646484
621.043945	25059.273438
619.827148	25494.277344
618.610352	25329.269531
617.393555	25453.919922
616.175781	25262.283203
614.958008	25493.660156
613.740234	25544.308594
612.522461	25178.308594
611.303711	25337.748047
610.084961	25630.480469
608.866211	24887.246094
607.647461	24544.197266
606.427734	24676.976562
605.208984	24325.892578
603.989258	24235.246094
602.768555	24062.662109
601.548828	24129.863281
600.328125	24100.757812
599.107422	23645.650391
597.886719	23817.324219
596.666016	23845.615234
595.444336	23591.412109
594.222656	23644.292969
593.000977	23727.845703
591.779297	23702.937500
590.556641	23551.218750
589.334961	23477.269531
588.112305	23638.484375
586.888672	23656.537109
585.666016	23134.990234
584.442383	23408.568359
583.218750	23252.984375
581.995117	23320.117188
580.770508	23489.341797
579.546875	23476.765625
578.322266	23464.193359
577.097656	23233.212891
575.872070	23314.566406
574.647461	23606.056641
573.421875	23130.367188
572.196289	23291.240234
570.969727	23411.265625
569.744141	23215.208984
568.517578	23380.048828
567.291016	23198.337891
566.064453	23328.474609
564.836914	23250.748047
563.609375	23232.121094
562.381836	23274.599609
561.154297	23457.562500
559.926758	23149.810547
558.698242	23257.412109
557.469727	23234.726562
556.241211	23142.869141
555.012695	23114.107422
553.783203	22894.164062
552.553711	23115.587891
551.324219	22726.970703
550.094727	23176.013672
548.864258	22809.886719
547.633789	22998.642578
546.403320	22896.798828
545.172852	22845.775391
543.941406	22977.548828
542.710938	22822.970703
541.479492	22489.796875
540.247070	22733.197266
539.015625	22540.189453
537.783203	22659.718750
536.550781	22669.656250
535.318359	22586.291016
534.085938	22742.242188
532.852539	22340.580078
531.619141	22715.441406
530.385742	22936.130859
529.152344	22425.234375
527.917969	22605.375000
526.683594	22759.113281
525.449219	22552.312500
524.214844	22600.712891
522.979492	22215.869141
521.744141	22569.939453
520.508789	22581.880859
519.273438	22381.371094
518.037109	22581.468750
516.801758	22696.544922
515.565430	22621.496094
514.328125	22394.845703
513.091797	22653.404297
511.854492	22566.277344
510.617188	22531.716797
509.379883	22666.869141
508.142578	22808.027344
506.904297	22759.300781
505.666016	23142.675781
504.427734	22623.548828
503.189453	22817.080078
501.950195	23087.220703
500.710938	23133.308594
499.471680	23028.089844
498.232422	23195.175781
496.992188	22793.570312
495.751953	22815.482422
494.511719	22746.679688
493.271484	22823.001953
492.030273	22782.431641
490.790039	22663.308594
489.548828	22785.923828
488.306641	22664.830078
487.065430	22449.150391
485.823242	22469.072266
484.581055	22237.408203
483.338867	22366.021484
482.095703	22285.351562
480.853516	22265.056641
479.610352	22027.568359
478.367188	22065.636719
477.123047	22316.785156
475.879883	22300.515625
474.635742	22133.531250
473.391602	22229.812500
472.146484	21994.603516
470.902344	22191.294922
469.657227	22134.896484
468.412109	22076.511719
467.166016	21925.808594
465.920898	21935.718750
464.674805	22248.611328
463.428711	22047.804688
462.182617	21981.462891
460.935547	22017.419922
459.688477	21872.908203
458.441406	22025.140625
457.194336	21918.761719
455.946289	21776.351562
454.699219	21772.238281
453.451172	21822.208984
452.202148	21954.273438
450.954102	21958.134766
449.705078	21915.947266
448.456055	21813.726562
447.207031	21679.523438
445.958008	21579.382812
444.708008	21599.310547
443.458008	22055.253906
442.208008	21951.097656
440.957031	21697.027344
439.707031	21479.035156
438.456055	21622.871094
437.205078	21560.833984
435.953125	21636.669922
434.702148	21552.679688
433.450195	21684.406250
432.198242	21750.189453
430.945312	21853.876953
429.693359	21869.703125
428.440430	21797.714844
427.187500	21815.539062
425.934570	22028.847656
424.680664	22010.716797
423.426758	22503.076172
422.172852	22740.054688
420.918945	22805.515625
419.664062	22990.529297
418.410156	23540.109375
417.155273	24320.574219
415.899414	24885.626953
414.644531	25237.380859
413.388672	25479.492188
412.132812	25548.324219
410.876953	25033.970703
409.620117	24376.535156
408.364258	23960.082031
407.107422	23157.888672
405.849609	22507.146484
404.592773	22341.820312
403.334961	22204.390625
402.077148	21685.378906
400.819336	21754.800781
399.561523	21621.529297
398.302734	21438.644531
397.043945	21331.302734
395.785156	21418.605469
394.525391	21073.058594
393.266602	21084.943359
392.006836	21134.533203
390.747070	21209.898438
389.486328	21070.972656
388.226562	21164.169922
386.965820	20991.589844
385.705078	20985.626953
384.443359	20827.021484
383.182617	20975.687500
381.920898	20991.525391
380.659180	20819.136719
379.396484	21118.263672
378.134766	20951.855469
376.872070	20924.121094
375.609375	20825.123047
374.346680	20664.798828
373.083008	20882.527344
371.819336	20878.566406
370.555664	20645.125000
369.291992	20554.181641
368.027344	20751.986328
366.762695	20631.396484
365.498047	20556.316406
364.233398	20532.652344
362.968750	20232.351562
361.703125	20550.539062
360.437500	20396.517578
359.170898	20461.765625
357.905273	20485.523438
356.638672	20209.203125
355.372070	20436.294922
354.105469	20460.041016
352.837891	20349.613281
351.571289	20341.802734
350.303711	20231.435547
349.035156	20105.335938
347.767578	19941.824219
346.499023	20070.101562
345.230469	20123.439453
343.961914	20090.060547
342.692383	20111.851562
341.423828	20001.669922
340.154297	19972.267578
338.883789	19840.494141
337.614258	20011.919922
336.343750	20069.128906
335.073242	19984.634766
333.802734	20045.757812
332.532227	20002.607422
331.260742	20114.835938
329.989258	19867.193359
328.717773	20040.345703
327.445312	19881.257812
326.173828	19808.695312
324.901367	20050.525391
323.627930	20023.138672
322.355469	19946.660156
321.082031	20111.738281
319.808594	20184.480469
318.535156	20155.121094
317.261719	20255.300781
315.987305	20528.111328
314.712891	20351.566406
313.438477	20606.599609
312.164062	20698.767578
310.888672	20794.822266
309.613281	21290.738281
308.337891	21737.464844
307.061523	22095.843750
305.786133	22969.345703
304.509766	23556.529297
303.233398	24678.138672
301.956055	25125.750000
300.678711	25633.876953
299.402344	25901.060547
298.124023	26510.603516
296.846680	27460.357422
295.568359	28975.083984
294.290039	30119.583984
293.011719	29529.167969
291.733398	27134.443359
290.454102	24758.222656
289.174805	23266.261719
287.895508	21892.105469
286.616211	21370.232422
285.335938	20836.839844
284.055664	20666.876953
282.775391	20350.542969
281.494141	20044.087891
280.213867	19665.537109
278.932617	19468.603516
277.651367	19482.449219
276.369141	19250.513672
275.087891	19133.728516
273.805664	19182.724609
272.523438	19208.308594
271.240234	19029.224609
269.958008	19105.492188
268.674805	19002.480469
267.390625	18833.275391
266.107422	18929.011719
264.823242	18800.773438
263.539062	18995.769531
262.254883	18762.455078
260.970703	18593.451172
259.685547	18644.384766
258.400391	18718.642578
257.115234	18639.212891
255.830078	18880.681641
254.543945	18608.763672
253.257812	18935.677734
251.971680	19019.521484
250.684570	19130.535156
249.398438	19220.136719
248.111328	19597.183594
246.824219	19987.677734
245.536133	19383.878906
244.248047	19302.523438
242.960938	19133.855469
241.671875	18755.667969
240.383789	18625.970703
239.094727	18793.117188
237.805664	18758.494141
236.516602	18818.900391
235.227539	18925.810547
233.937500	19265.281250
232.647461	20089.117188
231.357422	21197.466797
230.066406	23196.521484
228.775391	25146.388672
227.485352	26164.052734
226.193359	24259.707031
224.902344	22294.142578
223.610352	20466.744141
222.318359	19253.441406
221.026367	18826.072266
219.733398	18491.708984
218.441406	18329.591797
217.148438	17918.107422
215.854492	17974.607422
214.561523	17665.787109
213.267578	17735.839844
211.973633	17668.687500
210.679688	17547.472656
209.384766	17787.460938
208.090820	17256.908203
206.795898	17523.886719
205.500000	17393.138672
204.205078	17333.841797
202.909180	17307.371094
201.613281	17263.546875
200.317383	17296.886719
199.020508	17093.025391
197.723633	17004.919922
196.426758	17007.445312
195.129883	16823.027344
193.832031	17060.666016
192.534180	17111.339844
191.236328	16934.708984
189.938477	16939.167969
188.639648	16955.175781
187.341797	17009.679688
186.042969	16896.712891
184.743164	16828.048828
183.444336	17067.240234
182.144531	16840.835938
180.844727	16806.835938
179.543945	16834.380859
178.244141	16638.908203
176.943359	16683.769531
175.642578	16853.527344
174.340820	16571.699219
173.040039	16637.675781
171.738281	16626.804688
170.435547	16502.638672
169.133789	16510.994141
167.831055	16530.861328
166.528320	16420.218750
165.225586	16580.164062
163.922852	16352.530273
162.619141	16364.737305
161.315430	16411.457031
160.011719	16379.548828
158.708008	16322.731445
157.403320	16392.429688
156.098633	16230.238281
154.793945	16094.930664
153.488281	16076.517578
152.182617	16123.223633
150.876953	16055.028320
149.571289	16095.976562
148.265625	15907.228516
146.958984	15957.755859
145.652344	16006.349609
144.345703	15976.495117
143.038086	15722.885742
141.730469	15891.960938
140.422852	15609.786133
139.115234	15853.362305
137.806641	15630.544922
136.498047	15774.665039
135.189453	15515.651367
133.880859	15378.973633
132.571289	15249.985352
131.262695	15088.588867
129.952148	15076.145508
128.642578	14874.764648
127.332031	14644.838867
126.021484	14449.340820
124.710938	14206.232422
123.400391	13930.796875
122.088867	13644.027344
120.777344	13340.209961
119.465820	12916.436523
