#Wave		#Intensity
1999.057617	7532.969727
1998.089844	7300.470215
1997.122070	7237.208984
1996.154297	7344.409668
1995.186523	7389.604980
1994.217773	7279.893066
1993.249023	7477.366699
1992.280273	7465.740723
1991.311523	7273.506348
1990.341797	7341.890625
1989.373047	7338.031738
1988.403320	7326.437012
1987.433594	7265.856934
1986.463867	7388.330078
1985.494141	7160.224121
1984.524414	7316.173828
1983.553711	7389.618652
1982.583008	7550.625977
1981.613281	7242.803223
1980.641602	7424.380859
1979.670898	7384.464355
1978.700195	7519.615723
1977.728516	7510.582031
1976.756836	7496.404785
1975.785156	7258.382324
1974.813477	7295.704102
1973.841797	7304.719238
1972.869141	7329.161133
1971.897461	7428.158691
1970.924805	7357.452148
1969.952148	7397.292969
1968.979492	7252.090820
1968.005859	7374.155762
1967.033203	7449.937012
1966.059570	7456.342285
1965.085938	7411.383789
1964.112305	7461.441895
1963.138672	7375.423340
1962.165039	7415.203125
1961.190430	7324.089355
1960.215820	7422.876953
1959.242188	7288.182129
1958.266602	7330.513184
1957.291992	7406.166504
1956.317383	7530.509766
1955.341797	7395.889160
1954.366211	7476.617188
1953.390625	7413.807617
1952.415039	7310.023438
1951.439453	7329.240723
1950.463867	7320.276367
1949.487305	7390.702148
1948.510742	7425.256836
1947.534180	7444.439453
1946.557617	7445.698242
1945.580078	7370.183594
1944.603516	7299.812500
1943.625977	7405.980957
1942.648438	7458.399414
1941.670898	7306.214844
1940.693359	7322.835938
1939.715820	7462.158691
1938.737305	7363.727539
1937.758789	7531.104492
1936.780273	7471.021484
1935.801758	7454.387695
1934.823242	7445.421875
1933.844727	7449.227539
1932.865234	7386.645996
1931.885742	7364.932129
1930.906250	7355.986816
1929.926758	7441.466309
1928.947266	7394.238281
1927.966797	7431.210938
1926.986328	7350.842285
1926.006836	7576.520508
1925.026367	7322.773926
1924.044922	7420.914062
1923.064453	7248.845215
1922.083008	7492.220703
1921.102539	7434.855469
1920.121094	7410.627441
1919.139648	7554.512207
1918.157227	7326.543457
1917.175781	7409.284180
1916.193359	7433.444824
1915.211914	7350.695312
1914.229492	7377.401855
1913.246094	7332.856445
1912.263672	7479.120117
1911.281250	7236.181152
1910.297852	7471.416016
1909.314453	7358.234375
1908.331055	7295.935059
1907.347656	7375.991699
1906.363281	7351.829102
1905.379883	7403.898926
1904.395508	7412.763672
1903.411133	7337.808105
1902.426758	7293.352051
1901.442383	7507.892090
1900.458008	7481.191406
1899.472656	7317.440430
1898.487305	7328.847168
1897.501953	7368.159180
1896.516602	7458.193359
1895.531250	7330.068848
1894.544922	7445.437012
1893.559570	7461.880859
1892.573242	7376.917480
1891.586914	7360.417480
1890.599609	7316.047363
1889.613281	7514.926758
1888.625977	7574.407715
1887.639648	7259.012695
1886.652344	7386.891113
1885.665039	7334.958008
1884.676758	7495.686523
1883.689453	7431.096680
1882.701172	7485.467285
1881.713867	7517.046875
1880.725586	7326.001465
1879.736328	7425.887207
1878.748047	7439.758301
1877.759766	7274.109863
1876.770508	7518.042969
1875.781250	7322.108398
1874.791992	7601.325684
1873.802734	7458.502930
1872.812500	7497.613281
1871.823242	7592.275391
1870.833008	7482.356934
1869.842773	7392.675781
1868.852539	7479.732422
1867.862305	7485.992188
1866.871094	7537.671875
1865.880859	7561.580078
1864.889648	7451.781250
1863.898438	7541.271484
1862.907227	7486.992188
1861.915039	7334.401367
1860.923828	7469.239258
1859.931641	7556.142578
1858.939453	7549.776367
1857.947266	7533.333984
1856.955078	7620.179199
1855.961914	7487.873047
1854.969727	7383.312988
1853.976562	7487.762207
1852.983398	7546.862793
1851.990234	7349.222656
1850.997070	7516.532227
1850.002930	7434.701172
1849.008789	7398.178223
1848.014648	7394.363770
1847.020508	7561.546875
1846.026367	7399.309570
1845.032227	7317.569336
1844.037109	7645.529297
1843.042969	7614.031738
1842.047852	7492.097168
1841.051758	7535.997070
1840.056641	7439.233887
1839.061523	7515.771484
1838.065430	7459.216309
1837.069336	7623.581055
1836.073242	7396.359863
1835.077148	7422.663086
1834.081055	7338.564941
1833.083984	7560.528809
1832.086914	7531.611816
1831.090820	7530.288086
1830.092773	7418.649902
1829.095703	7452.439941
1828.098633	7601.505859
1827.100586	7532.512207
1826.102539	7548.725586
1825.104492	7640.081055
1824.106445	7498.485840
1823.108398	7694.988281
1822.109375	7403.214844
1821.111328	7492.027344
1820.112305	7403.113770
1819.113281	7516.917969
1818.113281	7448.045410
1817.114258	7514.273926
1816.114258	7570.474609
1815.115234	7451.617676
1814.115234	7442.806152
1813.115234	7486.490723
1812.114258	7462.680664
1811.114258	7568.815430
1810.113281	7467.549805
1809.112305	7513.696289
1808.111328	7412.475586
1807.110352	7563.489746
1806.109375	7509.729980
1805.107422	7680.642578
1804.105469	7467.155762
1803.103516	7470.832031
1802.101562	7481.990723
1801.099609	7667.752930
1800.096680	7412.020020
1799.094727	7632.637695
1798.091797	7464.258301
1797.088867	7390.657715
1796.085938	7680.942871
1795.082031	7395.530273
1794.079102	7496.372070
1793.075195	7422.816406
1792.071289	7414.037598
1791.067383	7504.861816
1790.063477	7441.301270
1789.058594	7594.315918
1788.053711	7456.100586
1787.049805	7621.499512
1786.044922	7543.035156
1785.039062	7534.244141
1784.034180	7371.266113
1783.028320	7387.372559
1782.023438	7552.636719
1781.017578	7399.683105
1780.011719	7641.926758
1779.004883	7608.278320
1777.999023	7671.529297
1776.992188	7466.500000
1775.985352	7574.455078
1774.978516	7548.290039
1773.971680	7631.366211
1772.964844	7729.305176
1771.957031	7544.298340
1770.950195	7508.230957
1769.942383	7482.099121
1768.934570	7515.504883
1767.925781	7576.178223
1766.917969	7557.485352
1765.909180	7347.912109
1764.900391	7587.041992
1763.891602	7469.229492
1762.882812	7316.770020
1761.874023	7647.437988
1760.864258	7386.018066
1759.854492	7374.809570
1758.844727	7517.116211
1757.834961	7619.763184
1756.825195	7549.115234
1755.815430	7547.783203
1754.804688	7556.348633
1753.793945	7663.862793
1752.783203	7553.682129
1751.772461	7539.984375
1750.760742	7499.093262
1749.750000	7552.155273
1748.738281	7459.372070
1747.726562	7505.007812
1746.714844	7516.037109
1745.703125	7408.486328
1744.690430	7570.190430
1743.678711	7465.137207
1742.666016	7602.083984
1741.653320	7731.576172
1740.640625	7510.546387
1739.626953	7412.979492
1738.614258	7601.649902
1737.600586	7553.437988
1736.586914	7628.562012
1735.573242	7622.282715
1734.558594	7554.367188
1733.544922	7567.823242
1732.530273	7512.263672
1731.515625	7476.437500
1730.500977	7603.233398
1729.486328	7547.696289
1728.471680	7664.582520
1727.456055	7564.729004
1726.440430	7551.082031
1725.424805	7778.677246
1724.409180	7723.156738
1723.393555	7926.032715
1722.376953	9624.700195
1721.360352	8016.706055
1720.344727	7488.970703
1719.328125	7588.465332
1718.310547	7646.129395
1717.293945	7770.142090
1716.276367	7645.883789
1715.258789	7769.852051
1714.241211	7746.366699
1713.223633	7654.110352
1712.206055	7581.534180
1711.187500	7749.624512
1710.169922	7598.493652
1709.151367	7803.340332
1708.132812	7612.985352
1707.113281	7643.538086
1706.094727	7848.267090
1705.075195	7844.425781
1704.055664	7678.721680
1703.036133	7704.335938
1702.016602	7769.166016
1700.997070	7836.424316
1699.976562	7830.136230
1698.956055	7892.458984
1697.935547	7699.971680
1696.915039	7698.608887
1695.894531	7790.308594
1694.873047	8009.301758
1693.852539	7809.584473
1692.831055	7955.064453
1691.809570	7941.419922
1690.788086	7905.758301
1689.765625	7931.269043
1688.743164	8030.149902
1687.721680	8055.628906
1686.699219	7944.172363
1685.676758	7864.536133
1684.653320	7887.585449
1683.630859	7947.284180
1682.607422	8068.045410
1681.583984	8010.428711
1680.560547	8123.808105
1679.537109	8027.127930
1678.512695	8120.930176
1677.488281	8031.607422
1676.464844	7991.131836
1675.440430	7994.596680
1674.415039	8002.939941
1673.390625	8062.509277
1672.365234	8112.300781
1671.340820	8057.213379
1670.315430	8189.885742
1669.290039	8183.558594
1668.263672	8228.417969
1667.238281	8151.415039
1666.211914	8320.522461
1665.185547	8292.250977
1664.159180	8178.743652
1663.132812	8345.320312
1662.105469	8334.101562
1661.079102	8434.865234
1660.051758	8401.728516
1659.024414	8444.041016
1657.997070	8542.296875
1656.968750	8489.697266
1655.941406	8566.020508
1654.913086	8472.095703
1653.884766	8674.821289
1652.856445	8636.819336
1651.828125	8683.895508
1650.798828	8828.155273
1649.769531	8790.145508
1648.740234	8752.148438
1647.710938	8806.456055
1646.681641	8851.030273
1645.652344	8992.702148
1644.622070	9000.815430
1643.591797	8991.937500
1642.561523	9080.123047
1641.531250	9185.260742
1640.500977	9300.063477
1639.469727	9206.252930
1638.438477	9478.623047
1637.408203	9476.940430
1636.375977	9577.064453
1635.344727	9364.516602
1634.313477	9685.125977
1633.281250	9782.736328
1632.249023	9562.997070
1631.216797	9926.992188
1630.184570	9910.701172
1629.151367	10117.142578
1628.119141	10287.202148
1627.085938	10268.434570
1626.052734	10109.332031
1625.019531	10395.424805
1623.985352	10437.116211
1622.952148	10495.721680
1621.917969	10585.738281
1620.883789	11019.008789
1619.849609	10743.920898
1618.815430	10877.344727
1617.780273	11124.282227
1616.745117	11061.910156
1615.709961	11108.251953
1614.674805	11169.065430
1613.639648	11362.655273
1612.604492	11568.246094
1611.568359	11459.989258
1610.532227	11805.455078
1609.496094	11653.762695
1608.459961	11562.433594
1607.423828	11673.738281
1606.386719	11751.242188
1605.349609	11698.520508
1604.312500	11829.025391
1603.275391	11829.332031
1602.238281	11615.166992
1601.200195	11882.949219
1600.163086	11714.619141
1599.125000	11859.454102
1598.086914	11809.182617
1597.047852	11913.018555
1596.009766	11737.579102
1594.970703	11783.626953
1593.931641	11613.084961
1592.892578	11654.325195
1591.853516	11755.687500
1590.814453	11695.874023
1589.774414	11585.583984
1588.734375	11403.205078
1587.694336	11737.706055
1586.654297	11653.902344
1585.614258	11449.981445
1584.573242	11363.855469
1583.532227	11361.833008
1582.492188	11422.252930
1581.450195	11050.430664
1580.409180	11262.133789
1579.368164	10888.071289
1578.326172	11044.528320
1577.284180	11037.762695
1576.242188	10983.017578
1575.200195	10897.108398
1574.157227	10667.334961
1573.115234	10749.358398
1572.072266	10809.775391
1571.029297	10707.177734
1569.985352	10825.096680
1568.942383	10705.758789
1567.898438	10521.780273
1566.855469	10426.491211
1565.811523	10489.293945
1564.767578	10374.887695
1563.722656	10420.917969
1562.678711	10332.893555
1561.633789	10228.148438
1560.588867	9927.240234
1559.543945	9932.647461
1558.499023	10055.251953
1557.453125	9802.362305
1556.407227	9688.239258
1555.361328	9851.459961
1554.315430	9830.582031
1553.269531	9680.667969
1552.223633	9729.116211
1551.176758	9693.937500
1550.129883	9584.729492
1549.083008	9559.140625
1548.036133	9619.512695
1546.989258	9610.635742
1545.941406	9527.772461
1544.893555	9335.169922
1543.845703	9488.585938
1542.797852	9501.205078
1541.750000	9485.200195
1540.701172	9383.355469
1539.652344	9491.352539
1538.603516	9511.112305
1537.554688	9476.048828
1536.505859	9352.830078
1535.456055	9339.249023
1534.407227	9463.830078
1533.357422	9335.915039
1532.307617	9315.199219
1531.256836	9161.167969
1530.207031	9128.587891
1529.156250	9291.171875
1528.105469	9199.092773
1527.054688	9066.601562
1526.003906	9191.050781
1524.953125	9141.845703
1523.901367	9204.413086
1522.849609	9124.316406
1521.797852	9319.972656
1520.746094	9009.361328
1519.694336	9050.521484
1518.641602	9001.391602
1517.588867	9166.050781
1516.536133	9128.791016
1515.483398	8958.578125
1514.430664	8937.985352
1513.376953	9047.945312
1512.323242	9034.462891
1511.269531	9130.128906
1510.215820	9024.117188
1509.162109	8996.414062
1508.107422	9068.320312
1507.053711	9000.311523
1505.999023	9081.672852
1504.944336	9016.055664
1503.888672	9052.359375
1502.833984	8946.492188
1501.778320	8880.932617
1500.722656	9042.768555
1499.666992	8861.180664
1498.611328	9093.989258
1497.555664	9037.917969
1496.499023	8901.396484
1495.442383	8878.506836
1494.385742	9070.924805
1493.329102	9019.626953
1492.271484	8833.538086
1491.214844	9044.776367
1490.157227	8778.364258
1489.099609	9034.448242
1488.041992	8990.291016
1486.983398	8986.320312
1485.925781	8994.162109
1484.867188	8938.223633
1483.808594	8887.029297
1482.750000	8880.715820
1481.691406	8862.600586
1480.631836	8955.431641
1479.572266	8939.668945
1478.512695	9046.608398
1477.453125	9014.320312
1476.393555	8946.662109
1475.333008	9034.675781
1474.273438	8865.648438
1473.212891	8897.065430
1472.152344	9072.250977
1471.090820	8900.949219
1470.030273	8979.465820
1468.968750	8961.367188
1467.907227	8964.473633
1466.845703	8972.287109
1465.784180	9102.533203
1464.721680	8808.995117
1463.660156	9056.906250
1462.597656	8824.665039
1461.535156	8903.080078
1460.472656	8988.524414
1459.409180	8850.499023
1458.345703	8942.975586
1457.283203	8983.693359
1456.219727	9047.903320
1455.155273	9039.230469
1454.091797	8995.312500
1453.027344	9043.039062
1451.963867	9067.257812
1450.899414	9053.888672
1449.833984	9047.569336
1448.769531	8902.733398
1447.704102	8915.221680
1446.639648	8941.786133
1445.574219	9041.082031
1444.507812	9048.845703
1443.442383	9030.802734
1442.375977	8935.374023
1441.310547	9187.011719
1440.244141	9164.264648
1439.177734	9164.964844
1438.110352	9205.504883
1437.043945	8988.285156
1435.976562	9143.634766
1434.909180	8975.690430
1433.841797	9016.234375
1432.773438	9262.810547
1431.706055	9172.189453
1430.637695	9203.312500
1429.569336	9150.175781
1428.500977	9230.425781
1427.432617	9231.108398
1426.363281	9234.129883
1425.294922	9288.596680
1424.225586	9322.000977
1423.156250	9313.314453
1422.085938	9148.034180
1421.016602	9295.949219
1419.946289	9277.925781
1418.875977	9428.099609
1417.805664	9396.043945
1416.735352	9321.966797
1415.664062	9266.593750
1414.593750	9512.367188
1413.522461	9312.277344
1412.451172	9343.273438
1411.379883	9469.913086
1410.307617	9421.559570
1409.235352	9450.185547
1408.164062	9548.755859
1407.090820	9437.464844
1406.018555	9587.282227
1404.946289	9669.458984
1403.873047	9369.464844
1402.799805	9488.925781
1401.726562	9708.503906
1400.653320	9809.229492
1399.580078	9588.590820
1398.505859	9684.645508
1397.431641	9699.197266
1396.357422	9583.420898
1395.283203	9739.918945
1394.208008	9710.251953
1393.133789	9768.980469
1392.058594	9755.596680
1390.983398	9823.595703
1389.908203	9786.958008
1388.832031	9889.791016
1387.756836	9976.318359
1386.680664	9828.147461
1385.604492	9642.861328
1384.528320	10075.453125
1383.451172	9922.698242
1382.375000	9981.279297
1381.297852	10083.944336
1380.220703	10014.823242
1379.143555	10024.624023
1378.065430	10097.062500
1376.988281	10088.287109
1375.910156	10093.428711
1374.832031	10272.482422
1373.753906	10108.343750
1372.674805	10134.339844
1371.596680	10072.258789
1370.517578	10228.013672
1369.438477	10272.506836
1368.359375	10226.647461
1367.279297	10296.599609
1366.200195	10435.991211
1365.120117	10371.605469
1364.040039	10529.450195
1362.959961	10319.270508
1361.878906	10361.375000
1360.798828	10357.195312
1359.717773	10364.582031
1358.636719	10610.162109
1357.555664	10439.461914
1356.473633	10333.552734
1355.392578	10442.634766
1354.310547	10466.173828
1353.228516	10427.320312
1352.146484	10460.092773
1351.063477	10529.807617
1349.981445	10574.094727
1348.898438	10726.881836
1347.815430	10413.311523
1346.732422	10559.146484
1345.649414	10474.169922
1344.565430	10290.014648
1343.481445	10590.345703
1342.397461	10641.482422
1341.313477	10445.866211
1340.229492	10395.566406
1339.144531	10499.726562
1338.059570	10592.325195
1336.974609	10422.204102
1335.889648	10588.505859
1334.804688	10676.429688
1333.718750	10570.868164
1332.632812	10582.777344
1331.546875	10544.033203
1330.460938	10288.935547
1329.375000	10491.900391
1328.288086	10462.396484
1327.201172	10423.700195
1326.114258	10465.521484
1325.027344	10344.048828
1323.940430	10378.970703
1322.852539	10535.719727
1321.764648	10239.616211
1320.676758	10242.364258
1319.588867	10408.242188
1318.500977	10243.261719
1317.412109	10335.581055
1316.324219	10577.131836
1315.235352	10285.929688
1314.145508	10114.202148
1313.056641	10192.706055
1311.966797	10229.875977
1310.876953	9913.708008
1309.787109	10097.722656
1308.697266	10084.431641
1307.607422	9956.492188
1306.516602	9881.329102
1305.425781	9959.772461
1304.334961	9861.716797
1303.244141	9843.895508
1302.153320	9862.735352
1301.061523	9691.451172
1299.969727	9781.306641
1298.877930	9809.305664
1297.786133	9729.695312
1296.694336	9638.668945
1295.601562	9405.787109
1294.508789	9472.730469
1293.416016	9553.375000
1292.323242	9441.859375
1291.230469	9645.969727
1290.136719	9532.190430
1289.042969	9338.440430
1287.949219	9405.320312
1286.855469	9444.753906
1285.760742	9436.191406
1284.666992	9459.613281
1283.572266	9227.221680
1282.477539	9307.761719
1281.381836	9146.257812
1280.287109	9160.583008
1279.191406	9211.418945
1278.095703	9266.800781
1277.000000	9094.012695
1275.904297	9192.734375
1274.808594	9273.174805
1273.711914	9032.071289
1272.615234	9066.914062
1271.518555	8976.375977
1270.421875	9054.517578
1269.324219	8900.211914
1268.226562	9055.796875
1267.129883	8969.879883
1266.031250	8895.380859
1264.933594	8784.476562
1263.835938	8719.143555
1262.737305	9086.297852
1261.638672	8791.084961
1260.540039	9010.198242
1259.441406	8958.518555
1258.341797	8979.641602
1257.242188	8816.556641
1256.142578	8751.297852
1255.042969	8733.799805
1253.943359	8589.029297
1252.842773	8657.918945
1251.743164	8574.558594
1250.642578	8568.461914
1249.541016	8771.316406
1248.440430	8585.794922
1247.338867	8577.427734
1246.238281	8437.406250
1245.136719	8501.694336
1244.034180	8502.422852
1242.932617	8416.939453
1241.831055	8508.415039
1240.728516	8438.835938
1239.625977	8394.223633
1238.522461	8367.764648
1237.419922	8311.847656
1236.316406	8400.991211
1235.213867	8295.239258
1234.110352	8298.266602
1233.005859	8362.447266
1231.902344	8326.961914
1230.797852	8230.355469
1229.693359	8301.303711
1228.588867	8252.267578
1227.484375	8343.552734
1226.379883	8106.733398
1225.274414	8078.117188
1224.168945	8246.281250
1223.063477	7993.778809
1221.958008	7890.587402
1220.851562	7966.013184
1219.746094	7932.926270
1218.639648	7881.773926
1217.533203	7934.565918
1216.425781	8046.069336
1215.319336	8008.473633
1214.211914	7921.214355
1213.104492	7890.427734
1211.997070	8004.113770
1210.889648	7907.874512
1209.781250	7757.516113
1208.672852	7983.963379
1207.564453	7862.967773
1206.456055	7717.208984
1205.347656	7846.583984
1204.238281	7827.124023
1203.128906	7850.496094
1202.019531	7858.084473
1200.910156	7746.253906
1199.800781	7891.273926
1198.690430	7698.394043
1197.580078	7604.667969
1196.469727	7553.753418
1195.359375	7757.229492
1194.249023	7692.801270
1193.137695	7709.405762
1192.026367	7681.006348
1190.915039	7623.374512
1189.803711	7523.031738
1188.691406	7676.819824
1187.580078	7484.325684
1186.467773	7523.425781
1185.355469	7522.058105
1184.242188	7367.895508
1183.129883	7602.447266
1182.016602	7455.063477
1180.903320	7534.556152
1179.790039	7526.449707
1178.676758	7430.793457
1177.562500	7528.202148
1176.449219	7300.175293
1175.334961	7238.266602
1174.219727	7328.926270
1173.105469	7410.581055
1171.990234	7214.135254
1170.875977	7385.464355
1169.760742	7218.235840
1168.644531	7360.364746
1167.529297	7040.821289
1166.413086	7317.357910
1165.297852	7336.187012
1164.181641	7276.621094
1163.064453	7073.765137
1161.948242	7007.551270
1160.831055	7131.627930
1159.713867	7005.000977
1158.596680	7111.130859
1157.479492	6986.790039
1156.362305	7097.358398
1155.244141	7022.265137
1154.125977	6982.975098
1153.007812	7006.294922
1151.888672	7177.126953
1150.770508	7012.682129
1149.651367	6886.281250
1148.532227	6782.265625
1147.413086	6979.815430
1146.293945	6909.316895
1145.173828	6754.000000
1144.053711	6913.497070
1142.933594	6666.727051
1141.813477	6803.865723
1140.693359	6809.319336
1139.572266	6765.695312
1138.451172	6668.560059
1137.330078	6700.792969
1136.208984	6715.178223
1135.086914	6700.580078
1133.965820	6685.986816
1132.843750	6609.007324
1131.721680	6614.486328
1130.599609	6546.457031
1129.476562	6687.793945
1128.353516	6597.509277
1127.230469	6683.129395
1126.107422	6588.426270
1124.984375	6509.335449
1123.860352	6456.973145
1122.737305	6604.843750
1121.613281	6487.980957
1120.488281	6600.210938
1119.364258	6383.338867
1118.239258	6526.667969
1117.115234	6558.815918
1115.990234	6499.842773
1114.864258	6385.347168
1113.739258	6304.213379
1112.613281	6374.133301
1111.487305	6328.559082
1110.361328	6394.008789
1109.235352	6546.003418
1108.108398	6402.771484
1106.982422	6348.348633
1105.855469	6320.567871
1104.728516	6399.266113
1103.600586	6391.444824
1102.473633	6370.322266
1101.345703	6344.772949
1100.217773	6383.511719
1099.089844	6482.069824
1097.960938	6385.611816
1096.833008	6368.938477
1095.704102	6279.180176
1094.575195	6311.250488
1093.446289	6305.669434
1092.316406	6273.526367
1091.187500	6203.769531
1090.057617	6333.194824
1088.927734	6334.250000
1087.796875	6297.699707
1086.666992	6358.475098
1085.536133	6288.764648
1084.405273	6345.097168
1083.274414	6058.791992
1082.143555	6232.276855
1081.011719	6237.766602
1079.879883	6280.811035
1078.748047	6169.222168
1077.616211	6293.973633
1076.484375	6142.678711
1075.351562	6256.351074
1074.218750	6482.548828
1073.085938	6995.547363
1071.953125	8556.394531
1070.820312	9472.521484
1069.686523	10346.407227
1068.552734	8560.521484
1067.418945	8373.754883
1066.284180	8530.937500
1065.150391	8408.159180
1064.015625	8417.638672
1062.880859	6197.509277
1061.746094	6143.508789
1060.611328	6182.027344
1059.475586	6257.964844
1058.339844	6135.733887
1057.204102	6064.174316
1056.068359	6241.325195
1054.932617	6086.158691
1053.795898	6100.444336
1052.659180	6152.116699
1051.522461	6186.176758
1050.385742	6077.306152
1049.248047	6047.615234
1048.110352	6094.862305
1046.972656	6104.733887
1045.834961	5870.720703
1044.697266	6069.547363
1043.558594	6053.061523
1042.419922	5825.773438
1041.281250	5954.241699
1040.142578	6194.613770
1039.003906	6013.512695
1037.864258	6029.965332
1036.724609	5908.195801
1035.584961	5990.466797
1034.445312	5958.665527
1033.304688	6040.896484
1032.165039	5965.251465
1031.024414	5977.309570
1029.883789	5881.979492
1028.742188	5981.691895
1027.601562	5969.642090
1026.459961	5926.932617
1025.318359	5910.516602
1024.176758	6056.128906
1023.034180	6000.291504
1021.892578	5931.341797
1020.750000	5877.735840
1019.607422	6001.367188
1018.463867	5917.142578
1017.321289	5898.560547
1016.177734	5897.479004
1015.034180	5894.210938
1013.890625	5823.181641
1012.747070	5870.193848
1011.602539	5890.967773
1010.458008	5920.472656
1009.313477	6000.204590
1008.168945	5802.555176
1007.024414	5810.224121
1005.878906	5859.368652
1004.733398	5882.302734
1003.587891	5756.833984
1002.442383	5788.505371
1001.295898	5874.701660
1000.149414	5814.734375
999.002930	5885.629395
997.856445	5843.123535
996.709961	5903.087402
995.562500	6019.694824
994.415039	5898.740723
993.267578	5867.156250
992.120117	5792.017578
990.972656	5793.131836
989.824219	5569.965820
988.675781	5767.056152
987.527344	5800.823730
986.378906	5767.114258
985.229492	5877.023926
984.080078	5747.591797
982.930664	5872.689941
981.781250	5725.907715
980.631836	5779.212402
979.481445	5799.889160
978.331055	5766.221191
977.180664	5782.546387
976.030273	5822.764160
974.879883	5997.648438
973.728516	5814.108398
972.577148	5765.267090
971.425781	5827.168457
970.273438	5776.171875
969.122070	5705.660645
967.969727	5938.958496
966.817383	5733.935547
965.665039	5839.166016
964.511719	5864.116211
963.359375	5780.643066
962.206055	5809.930176
961.052734	5973.590820
959.898438	5887.975586
958.745117	5711.390625
957.590820	5749.333008
956.436523	5750.440918
955.282227	5807.851562
954.127930	5748.325195
952.972656	5801.384766
951.817383	5778.674316
950.662109	5714.857910
949.506836	5718.132812
948.350586	5758.179688
947.195312	5605.730469
946.039062	5788.494141
944.882812	5668.523926
943.725586	5773.394043
942.569336	5858.775879
941.412109	5678.357910
940.254883	5660.029785
939.097656	5684.906250
937.939453	5748.645020
936.782227	5812.359863
935.624023	5584.623535
934.465820	5713.094238
933.306641	5655.936035
932.148438	5695.887207
930.989258	5660.323730
929.830078	5728.296387
928.670898	5640.987305
927.510742	5833.982910
926.351562	5712.197266
925.191406	5711.144531
924.031250	5705.782227
922.871094	5749.972168
921.709961	5636.906738
920.548828	5799.538086
919.387695	5723.108398
918.226562	5846.914062
917.065430	5594.008789
915.903320	5788.806641
914.741211	5718.889160
913.579102	5797.428223
912.416992	5716.780273
911.254883	5694.222168
910.091797	5682.421875
908.928711	5672.775391
907.765625	5798.531738
906.601562	5681.426758
905.438477	5682.527344
904.274414	5617.038574
903.110352	5753.449219
901.946289	5703.001953
900.781250	5656.866211
899.617188	5610.747559
898.452148	5762.080078
897.287109	5542.162109
896.121094	5753.517578
894.956055	5782.483398
893.790039	5588.416016
892.624023	5733.179688
891.458008	5729.977539
890.291016	5656.049316
889.125000	5577.861816
887.958008	5628.250977
886.791016	5817.855957
885.623047	5666.864258
884.456055	5648.687500
883.288086	5688.321289
882.120117	5663.725098
880.952148	5613.457031
879.783203	5706.566406
878.615234	5696.955078
877.446289	5747.236328
876.277344	5609.310059
875.107422	5631.792969
873.938477	5560.207520
872.768555	5539.943848
871.598633	5692.779297
870.428711	5629.767578
869.257812	5686.402832
868.087891	5625.550781
866.916992	5524.149414
865.746094	5608.526367
864.575195	5633.104492
863.403320	5606.453125
862.231445	5505.128906
861.059570	5617.180176
859.887695	5648.136230
858.715820	5572.451172
857.542969	5692.955566
856.370117	5551.203613
855.197266	5629.039062
854.024414	5568.329590
852.850586	5712.181152
851.676758	5470.409668
850.503906	5710.067871
849.329102	5777.153320
848.155273	5718.600098
846.980469	5651.554199
845.805664	5552.608398
844.630859	5785.645508
843.456055	5690.966309
842.280273	5649.498535
841.105469	5550.625488
839.929688	5683.554199
838.753906	5671.872559
837.577148	5706.955566
836.400391	5693.148438
835.224609	5685.720215
834.046875	5623.062012
832.870117	5728.216797
831.693359	5667.697266
830.515625	5653.908691
829.337891	5657.107422
828.160156	5730.341309
826.981445	5754.743652
825.803711	5694.273926
824.625000	5737.763184
823.446289	5653.989746
822.266602	5619.016113
821.087891	5874.493652
819.908203	5642.369141
818.728516	5643.442871
817.548828	5782.238281
816.368164	5728.206055
815.188477	5667.839844
814.007812	5745.141602
812.827148	5665.738770
811.645508	5651.987305
810.464844	5617.075684
809.283203	5721.837891
808.101562	5777.899902
806.919922	5740.868652
805.737305	5760.952637
804.554688	5721.823730
803.373047	5627.741699
802.189453	5766.202637
801.006836	5845.439453
799.823242	5768.289551
798.640625	5577.091309
797.457031	5783.046875
796.272461	5537.010742
795.088867	5842.130371
793.904297	5710.166016
792.719727	5755.539062
791.535156	5564.554688
790.350586	5742.854004
789.165039	5689.053223
787.979492	5673.233887
786.793945	5720.679199
785.608398	5635.288086
784.421875	5617.378906
783.236328	5635.303223
782.049805	5773.322266
780.862305	5706.943848
779.675781	5661.652344
778.488281	5721.671387
777.300781	5674.288086
776.113281	5723.756348
774.925781	5676.389648
773.737305	5824.741211
772.549805	5737.398438
771.361328	5675.330078
770.171875	5670.069336
768.983398	5744.714844
767.793945	5686.883789
766.604492	5595.442383
765.415039	5775.138184
764.225586	5616.475586
763.035156	5602.826660
761.845703	5704.705566
760.655273	5581.844238
759.463867	5811.765137
758.273438	5609.158203
757.082031	5570.335938
755.890625	5781.244141
754.699219	5668.971680
753.507812	5680.503418
752.315430	5660.571777
751.123047	5789.526367
749.930664	5752.809082
748.738281	5667.894531
747.544922	5553.670898
746.351562	5722.359863
745.158203	5723.390137
743.964844	5598.746582
742.771484	5647.964844
741.577148	5678.320312
740.382812	5484.672363
739.188477	5661.556152
737.994141	5629.113281
736.798828	5575.760254
735.603516	5604.007812
734.408203	5487.935547
733.212891	5643.742676
732.016602	5651.054688
730.821289	5714.801270
729.625000	5703.287598
728.428711	5578.945312
727.231445	5717.876465
726.035156	5666.682617
724.837891	5690.687012
723.640625	5702.154785
722.442383	5665.604492
721.245117	5679.159180
720.046875	5575.849609
718.848633	5639.488281
717.650391	5740.651367
716.451172	5649.900879
715.252930	5665.529785
714.053711	5687.407227
712.854492	5723.867188
711.654297	5691.539551
710.455078	5761.323242
709.254883	5741.500000
708.054688	5652.948242
706.853516	5689.379395
705.653320	5723.714844
704.452148	5693.503418
703.250977	5659.140625
702.049805	5533.229004
700.847656	5605.016602
699.646484	5491.642090
698.444336	5708.994629
697.242188	5670.500977
696.039062	5629.941895
694.836914	5618.499023
693.633789	5744.222656
692.430664	5770.163086
691.227539	5723.382324
690.023438	5815.782227
688.819336	5702.556641
687.615234	5682.806152
686.411133	5656.834473
685.207031	5738.799316
684.001953	5737.728516
682.796875	5715.910156
681.591797	5743.883789
680.386719	5620.447754
679.180664	5580.000488
677.974609	5726.155273
676.768555	5664.974609
675.562500	5641.120117
674.356445	5565.473633
673.149414	5605.867188
671.942383	5671.100586
670.735352	5620.340332
669.527344	5704.180176
668.320312	5759.007324
667.112305	5826.231934
665.904297	5744.439941
664.695312	5615.092773
663.487305	5818.830078
662.278320	5768.106934
661.069336	5682.250000
659.860352	5778.355469
658.650391	5694.595215
657.440430	5875.393555
656.230469	5628.413574
655.020508	5641.822266
653.810547	5702.731445
652.599609	5806.983887
651.388672	5760.475098
650.177734	5672.697754
648.966797	5686.083984
647.754883	5703.592773
646.542969	5553.979492
645.331055	5643.702148
644.119141	5665.333008
642.906250	5761.186523
641.694336	5659.090332
640.481445	5616.807617
639.267578	5640.486328
638.054688	5769.239258
636.840820	5714.598145
635.626953	5542.576172
634.413086	5628.028809
633.199219	5666.094727
631.984375	5648.565918
630.769531	5661.916016
629.554688	5667.029297
628.339844	5526.067871
627.124023	5562.059082
625.909180	5783.129395
624.693359	5724.472656
623.476562	5752.182617
622.260742	5736.717285
621.043945	5729.478027
619.827148	5621.562500
618.610352	5793.068848
617.393555	5697.504883
616.175781	5567.066406
614.958008	5678.945312
613.740234	5645.037598
612.522461	5697.341309
611.303711	5677.806152
610.084961	5715.722656
608.866211	5634.654297
607.647461	5660.259277
606.427734	5622.290527
605.208984	5664.288086
603.989258	5529.998047
602.768555	5711.347656
601.548828	5616.027344
600.328125	5737.885254
599.107422	5642.595703
597.886719	5791.023438
596.666016	5665.048340
595.444336	5709.019531
594.222656	5658.830566
593.000977	5768.264648
591.779297	5673.074707
590.556641	5745.646484
589.334961	5656.631348
588.112305	5745.536133
586.888672	5824.185547
585.666016	5821.048828
584.442383	5631.952637
583.218750	5639.068359
581.995117	5727.891113
580.770508	5755.409668
579.546875	5648.145996
578.322266	5663.418945
577.097656	5705.221191
575.872070	5789.865723
574.647461	5688.796387
573.421875	5781.571777
572.196289	5678.501953
570.969727	5754.929199
569.744141	5835.405762
568.517578	5669.187988
567.291016	5823.023438
566.064453	5813.778809
564.836914	5735.265625
563.609375	5801.410156
562.381836	5700.525391
561.154297	5703.526855
559.926758	5692.275879
558.698242	5599.609863
557.469727	5720.663574
556.241211	5680.929199
555.012695	5753.097656
553.783203	5756.084473
552.553711	5783.472656
551.324219	5548.568848
550.094727	5504.836914
548.864258	5735.498535
547.633789	5781.157227
546.403320	5745.532227
545.172852	5518.979980
543.941406	5714.939453
542.710938	5665.132324
541.479492	5511.807129
540.247070	5719.834473
539.015625	5645.701660
537.783203	5731.886230
536.550781	5588.805664
535.318359	5626.290527
534.085938	5550.202148
532.852539	5652.558105
531.619141	5767.038086
530.385742	5680.831543
529.152344	5635.183594
527.917969	5642.227051
526.683594	5564.194336
525.449219	5490.240723
524.214844	5649.166016
522.979492	5514.491211
521.744141	5511.429199
520.508789	5571.101074
519.273438	5653.005859
518.037109	5556.866211
516.801758	5725.709961
515.565430	5577.017090
514.328125	5727.597168
513.091797	5550.660156
511.854492	5541.530762
510.617188	5627.372559
509.379883	5476.816406
508.142578	5631.312500
506.904297	5494.947754
505.666016	5647.362305
504.427734	5634.186035
503.189453	5588.721191
501.950195	5579.596680
500.710938	5637.054199
499.471680	5615.819824
498.232422	5772.071289
496.992188	5625.801758
495.751953	5701.350586
494.511719	5543.054199
493.271484	5697.185547
492.030273	5619.545410
490.790039	5495.600098
489.548828	5532.832520
488.306641	5666.710938
487.065430	5657.588867
485.823242	5598.144531
484.581055	5617.214844
483.338867	5710.730469
482.095703	5667.404297
480.853516	5575.818359
479.610352	5594.877441
478.367188	5603.875488
477.123047	5697.304199
475.879883	5702.258789
474.635742	5751.422363
473.391602	5726.226074
472.146484	5666.889648
470.902344	5635.693359
469.657227	5642.661621
468.412109	5657.658203
467.166016	5728.853027
465.920898	5743.826660
464.674805	5794.912598
463.428711	5506.936035
462.182617	5899.030762
460.935547	5623.175293
459.688477	5626.123535
458.441406	5667.158691
457.194336	5714.190918
455.946289	5650.990234
454.699219	5691.996582
453.451172	5827.134766
452.202148	5689.846191
450.954102	5642.716309
449.705078	5703.711914
448.456055	5664.603516
447.207031	5621.506348
445.958008	5600.435547
444.708008	5627.383789
443.458008	5690.323730
442.208008	5525.269531
440.957031	5718.162598
439.707031	5717.081543
438.456055	5725.993652
437.205078	5609.013672
435.953125	5645.912109
434.702148	5700.773438
433.450195	5643.776855
432.198242	5712.594238
430.945312	5631.660156
429.693359	5636.583008
428.440430	5635.516602
427.187500	5608.512695
425.934570	5601.467285
424.680664	5753.979492
423.426758	5639.229004
422.172852	5610.250000
420.918945	5553.375488
419.664062	5699.801758
418.410156	5670.827148
417.155273	5562.175781
415.899414	5654.737793
414.644531	5576.001465
413.388672	5568.972656
412.132812	5605.741211
410.876953	5644.485352
409.620117	5593.668457
408.364258	5698.055176
407.107422	5746.705078
405.849609	5405.533203
404.592773	5583.466797
403.334961	5475.055176
402.077148	5674.771484
400.819336	5683.632812
399.561523	5595.132324
398.302734	5675.519531
397.043945	5654.582520
395.785156	5518.478027
394.525391	5646.483398
393.266602	5726.799316
392.006836	5523.279785
390.747070	5623.430664
389.486328	5693.785156
388.226562	5768.079102
386.965820	5642.047363
385.705078	5642.960449
384.443359	5534.841309
383.182617	5686.407227
381.920898	5544.632324
380.659180	5650.568848
379.396484	5693.076660
378.134766	5648.425781
376.872070	5564.188477
375.609375	5644.303223
374.346680	5637.293945
373.083008	5612.476074
371.819336	5472.906738
370.555664	5467.911621
369.291992	5585.547363
368.027344	5442.106445
366.762695	5533.999023
365.498047	5528.995117
364.233398	5565.496582
362.968750	5580.248535
361.703125	5480.407227
360.437500	5597.882324
359.170898	5628.417480
357.905273	5688.558594
356.638672	5559.159668
355.372070	5595.605469
354.105469	5519.554199
352.837891	5479.045410
351.571289	5568.746094
350.303711	5545.993164
349.035156	5582.405273
347.767578	5524.170898
346.499023	5649.274414
345.230469	5514.188965
343.961914	5586.045410
342.692383	5490.423340
341.423828	5503.167480
340.154297	5439.104980
338.883789	5534.546875
337.614258	5535.463379
336.343750	5504.888672
335.073242	5291.323730
333.802734	5571.654785
332.532227	5489.947266
331.260742	5498.736816
329.989258	5613.701172
328.717773	5404.248535
327.445312	5542.772461
326.173828	5541.718262
324.901367	5509.228027
323.627930	5518.001953
322.355469	5465.887695
321.082031	5566.957520
319.808594	5375.460449
318.535156	5443.139160
317.261719	5520.604492
315.987305	5450.878418
314.712891	5465.535156
313.438477	5462.533691
312.164062	5416.390137
310.888672	5419.280273
309.613281	5408.447266
308.337891	5474.054688
307.061523	5457.336426
305.786133	5456.296875
304.509766	5378.864746
303.233398	5571.725098
301.956055	5508.005859
300.678711	5456.057129
299.402344	5476.548340
298.124023	5540.083984
296.846680	5390.330078
295.568359	5549.710938
294.290039	5431.304199
293.011719	5514.353516
291.733398	5360.807129
290.454102	5310.917969
289.174805	5376.353027
287.895508	5353.834961
286.616211	5384.071777
285.335938	5299.057617
284.055664	5450.368652
282.775391	5283.370117
281.494141	5319.452637
280.213867	5341.859375
278.932617	5448.164551
277.651367	5347.625977
276.369141	5352.458008
275.087891	5357.288086
273.805664	5272.422363
272.523438	5316.254883
271.240234	5284.054688
269.958008	5255.764160
268.674805	5285.935547
267.390625	5181.683105
266.107422	5406.619629
264.823242	5345.222656
263.539062	5283.849121
262.254883	5204.980469
260.970703	5283.778809
259.685547	5313.902344
258.400391	5252.581055
257.115234	5269.083496
255.830078	5184.457031
254.543945	5210.687500
253.257812	5283.561035
251.971680	5220.358887
250.684570	5254.339355
249.398438	5294.134766
248.111328	5215.426270
246.824219	5196.951660
245.536133	5246.442871
244.248047	5257.088379
242.960938	5246.379395
241.671875	5274.485840
240.383789	5209.451172
239.094727	5204.576172
237.805664	5193.884277
236.516602	5268.516602
235.227539	5133.737793
233.937500	5256.811035
232.647461	5147.279297
231.357422	5266.427246
230.066406	5215.052246
228.775391	5192.749512
227.485352	5125.916016
226.193359	5227.550781
224.902344	5189.771484
223.610352	5196.520508
222.318359	5218.747070
221.026367	5175.186523
219.733398	5092.957031
218.441406	5190.612305
217.148438	5176.084473
215.854492	5132.564453
214.561523	5160.574707
213.267578	5194.371094
211.973633	5170.192383
210.679688	5026.257812
209.384766	5056.196777
208.090820	5126.674316
206.795898	5104.457031
205.500000	5001.178711
204.205078	5046.537598
202.909180	5091.878418
201.613281	5142.989746
200.317383	5037.853027
199.020508	4986.750977
197.723633	5037.852051
196.426758	4903.880859
195.129883	5028.213379
193.832031	4954.028809
192.534180	5010.875488
191.236328	4957.909668
189.938477	4960.811035
188.639648	4880.918945
187.341797	4781.806641
186.042969	4907.918945
184.743164	5068.620117
183.444336	5054.181152
182.144531	4987.811035
180.844727	4921.466309
179.543945	4976.285156
178.244141	4909.967773
176.943359	4962.844727
175.642578	4925.380859
174.340820	4951.335449
173.040039	5013.778809
171.738281	4945.595703
170.435547	4779.505371
169.133789	4834.265625
167.831055	4956.187012
166.528320	5076.142578
165.225586	4921.666992
163.922852	4824.802246
162.619141	4848.811035
161.315430	4834.457031
160.011719	4787.514160
158.708008	4869.023926
157.403320	4939.002441
156.098633	4922.725098
154.793945	4751.270996
153.488281	4815.484863
152.182617	4774.343262
150.876953	4840.442383
149.571289	4768.681641
148.265625	4689.292480
146.958984	4761.109863
145.652344	4656.879395
144.345703	4795.626465
143.038086	4829.131348
141.730469	4705.825195
140.422852	4762.275391
139.115234	4784.297852
137.806641	4833.066406
136.498047	4753.799316
135.189453	4701.307129
133.880859	4641.195312
132.571289	4754.878906
131.262695	4620.319824
129.952148	4657.608887
128.642578	4576.557129
127.332031	4466.914551
126.021484	4471.779297
124.710938	4352.661621
123.400391	4161.122559
122.088867	4164.135742
120.777344	4087.083496
119.465820	3848.057373
