#Wave		#Intensity
1999.057617	43237.074219
1998.089844	42927.074219
1997.122070	43358.683594
1996.154297	42914.695312
1995.186523	42917.546875
1994.217773	43348.921875
1993.249023	43372.339844
1992.280273	43793.164062
1991.311523	43475.906250
1990.341797	43156.179688
1989.373047	42999.058594
1988.403320	43025.085938
1987.433594	43009.851562
1986.463867	43487.000000
1985.494141	43149.500000
1984.524414	43198.667969
1983.553711	43667.800781
1982.583008	43088.285156
1981.613281	43194.101562
1980.641602	43323.054688
1979.670898	43392.738281
1978.700195	43019.617188
1977.728516	43421.359375
1976.756836	43313.417969
1975.785156	43393.343750
1974.813477	43401.207031
1973.841797	43445.078125
1972.869141	43375.777344
1971.897461	43270.500000
1970.924805	43491.746094
1969.952148	43566.406250
1968.979492	43826.066406
1968.005859	43489.535156
1967.033203	43515.339844
1966.059570	43818.531250
1965.085938	43402.562500
1964.112305	43823.773438
1963.138672	43233.382812
1962.165039	43413.203125
1961.190430	43718.707031
1960.215820	43623.835938
1959.242188	43223.718750
1958.266602	43352.109375
1957.291992	43106.042969
1956.317383	43201.078125
1955.341797	43372.980469
1954.366211	43901.097656
1953.390625	43760.171875
1952.415039	43562.921875
1951.439453	43878.097656
1950.463867	43460.617188
1949.487305	43647.652344
1948.510742	43954.960938
1947.534180	43430.164062
1946.557617	43530.078125
1945.580078	43755.347656
1944.603516	43578.832031
1943.625977	43844.941406
1942.648438	43289.921875
1941.670898	43942.140625
1940.693359	43563.714844
1939.715820	43691.589844
1938.737305	43622.609375
1937.758789	43829.648438
1936.780273	43609.914062
1935.801758	43540.980469
1934.823242	43461.851562
1933.844727	43821.988281
1932.865234	43888.371094
1931.885742	43778.585938
1930.906250	43781.140625
1929.926758	43781.136719
1928.947266	43431.582031
1927.966797	43967.359375
1926.986328	43987.726562
1926.006836	43691.863281
1925.026367	43816.804688
1924.044922	43957.000000
1923.064453	43597.574219
1922.083008	43791.265625
1921.102539	43561.933594
1920.121094	44229.398438
1919.139648	43587.445312
1918.157227	43806.464844
1917.175781	43437.246094
1916.193359	43360.910156
1915.211914	44088.902344
1914.229492	43875.054688
1913.246094	43714.714844
1912.263672	43862.242188
1911.281250	43676.523438
1910.297852	43757.882812
1909.314453	43930.746094
1908.331055	44093.378906
1907.347656	43811.156250
1906.363281	43833.980469
1905.379883	43650.988281
1904.395508	43468.062500
1903.411133	43589.984375
1902.426758	43597.585938
1901.442383	43765.144531
1900.458008	43866.640625
1899.472656	43813.269531
1898.487305	43833.511719
1897.501953	43957.769531
1896.516602	44003.339844
1895.531250	44163.031250
1894.544922	43911.847656
1893.559570	43952.328125
1892.573242	43708.871094
1891.586914	43855.820312
1890.599609	43769.578125
1889.613281	43574.414062
1888.625977	43898.632812
1887.639648	43850.414062
1886.652344	43794.617188
1885.665039	43655.281250
1884.676758	43877.992188
1883.689453	43979.132812
1882.701172	43817.058594
1881.713867	43548.773438
1880.725586	43882.648438
1879.736328	43700.437500
1878.748047	43700.359375
1877.759766	43571.335938
1876.770508	43925.187500
1875.781250	43748.144531
1874.791992	43745.527344
1873.802734	43907.136719
1872.812500	43778.179688
1871.823242	43656.843750
1870.833008	43992.625000
1869.842773	43621.332031
1868.852539	43646.496094
1867.862305	44085.578125
1866.871094	44254.488281
1865.880859	43951.527344
1864.889648	44100.214844
1863.898438	44095.000000
1862.907227	44004.046875
1861.915039	43915.644531
1860.923828	44028.937500
1859.931641	43847.300781
1858.939453	43970.644531
1857.947266	44056.148438
1856.955078	43887.195312
1855.961914	43987.789062
1854.969727	43927.187500
1853.976562	44105.789062
1852.983398	43904.214844
1851.990234	44075.203125
1850.997070	43934.093750
1850.002930	43850.898438
1849.008789	43946.335938
1848.014648	44383.789062
1847.020508	44300.554688
1846.026367	44290.261719
1845.032227	43704.316406
1844.037109	43885.136719
1843.042969	44108.613281
1842.047852	44533.007812
1841.051758	43882.109375
1840.056641	44459.593750
1839.061523	44203.183594
1838.065430	44325.972656
1837.069336	44240.367188
1836.073242	44280.277344
1835.077148	44192.199219
1834.081055	44199.484375
1833.083984	44377.343750
1832.086914	43978.292969
1831.090820	44329.148438
1830.092773	44055.597656
1829.095703	44551.703125
1828.098633	44233.093750
1827.100586	43902.066406
1826.102539	44402.941406
1825.104492	44267.382812
1824.106445	44149.398438
1823.108398	44422.093750
1822.109375	44637.105469
1821.111328	44128.617188
1820.112305	44055.785156
1819.113281	44210.687500
1818.113281	44348.019531
1817.114258	44242.664062
1816.114258	44402.449219
1815.115234	43977.046875
1814.115234	43891.808594
1813.115234	44391.515625
1812.114258	44083.800781
1811.114258	44180.992188
1810.113281	44278.148438
1809.112305	44225.394531
1808.111328	44065.269531
1807.110352	44319.703125
1806.109375	44499.144531
1805.107422	44369.003906
1804.105469	44463.515625
1803.103516	44325.937500
1802.101562	44168.445312
1801.099609	44240.492188
1800.096680	44013.234375
1799.094727	44299.718750
1798.091797	44493.859375
1797.088867	44299.078125
1796.085938	44069.472656
1795.082031	44131.480469
1794.079102	44430.140625
1793.075195	44504.515625
1792.071289	44651.085938
1791.067383	44324.503906
1790.063477	44204.664062
1789.058594	44239.195312
1788.053711	44388.187500
1787.049805	44017.085938
1786.044922	44148.648438
1785.039062	44200.566406
1784.034180	44356.917969
1783.028320	44326.722656
1782.023438	44525.253906
1781.017578	44012.828125
1780.011719	44069.687500
1779.004883	44206.035156
1777.999023	44069.058594
1776.992188	44297.261719
1775.985352	43673.562500
1774.978516	44063.140625
1773.971680	43799.671875
1772.964844	43856.484375
1771.957031	44094.441406
1770.950195	44344.714844
1769.942383	44006.949219
1768.934570	44090.964844
1767.925781	44524.613281
1766.917969	44320.882812
1765.909180	44055.246094
1764.900391	44211.066406
1763.891602	43848.886719
1762.882812	43781.687500
1761.874023	44071.242188
1760.864258	43845.503906
1759.854492	44392.488281
1758.844727	43924.125000
1757.834961	43899.046875
1756.825195	43438.351562
1755.815430	43809.316406
1754.804688	43920.347656
1753.793945	43561.316406
1752.783203	43699.558594
1751.772461	43941.613281
1750.760742	43983.308594
1749.750000	44086.789062
1748.738281	43705.789062
1747.726562	43814.222656
1746.714844	43865.785156
1745.703125	43766.640625
1744.690430	43946.625000
1743.678711	44047.519531
1742.666016	43876.789062
1741.653320	43960.378906
1740.640625	43999.511719
1739.626953	43490.796875
1738.614258	43650.890625
1737.600586	43850.394531
1736.586914	43623.140625
1735.573242	43566.117188
1734.558594	43851.820312
1733.544922	43922.957031
1732.530273	44050.753906
1731.515625	43658.550781
1730.500977	43939.101562
1729.486328	43694.855469
1728.471680	43778.261719
1727.456055	44415.695312
1726.440430	43474.734375
1725.424805	44079.992188
1724.409180	44020.515625
1723.393555	43670.695312
1722.376953	44219.003906
1721.360352	44240.707031
1720.344727	43913.160156
1719.328125	43993.921875
1718.310547	43816.500000
1717.293945	43798.921875
1716.276367	43668.292969
1715.258789	43955.445312
1714.241211	43399.800781
1713.223633	43323.347656
1712.206055	43998.441406
1711.187500	43870.339844
1710.169922	43867.492188
1709.151367	43719.816406
1708.132812	44082.671875
1707.113281	43672.453125
1706.094727	43681.898438
1705.075195	43657.000000
1704.055664	43963.195312
1703.036133	43825.457031
1702.016602	43719.640625
1700.997070	43849.171875
1699.976562	43785.042969
1698.956055	43686.632812
1697.935547	44097.832031
1696.915039	43783.847656
1695.894531	43697.730469
1694.873047	43900.574219
1693.852539	43922.179688
1692.831055	44142.042969
1691.809570	43495.488281
1690.788086	43671.300781
1689.765625	44003.621094
1688.743164	44213.519531
1687.721680	43873.097656
1686.699219	43938.683594
1685.676758	44202.261719
1684.653320	43546.707031
1683.630859	43890.906250
1682.607422	43968.648438
1681.583984	43970.632812
1680.560547	43860.257812
1679.537109	43691.312500
1678.512695	43346.625000
1677.488281	43907.750000
1676.464844	43853.593750
1675.440430	43955.640625
1674.415039	43552.585938
1673.390625	43969.339844
1672.365234	43493.250000
1671.340820	43702.578125
1670.315430	43846.000000
1669.290039	44050.316406
1668.263672	43815.835938
1667.238281	43625.300781
1666.211914	43907.507812
1665.185547	43858.312500
1664.159180	43921.167969
1663.132812	43392.257812
1662.105469	43516.039062
1661.079102	43710.371094
1660.051758	43717.222656
1659.024414	43743.539062
1657.997070	43655.492188
1656.968750	43801.000000
1655.941406	43613.253906
1654.913086	43303.984375
1653.884766	43461.632812
1652.856445	43602.203125
1651.828125	43696.546875
1650.798828	43700.945312
1649.769531	43382.210938
1648.740234	43721.878906
1647.710938	43400.816406
1646.681641	43682.082031
1645.652344	43349.000000
1644.622070	43698.132812
1643.591797	43612.714844
1642.561523	43245.847656
1641.531250	43247.875000
1640.500977	43429.402344
1639.469727	43538.105469
1638.438477	43297.593750
1637.408203	43268.089844
1636.375977	43456.746094
1635.344727	43121.855469
1634.313477	43354.085938
1633.281250	43280.976562
1632.249023	43253.910156
1631.216797	43071.859375
1630.184570	43148.960938
1629.151367	43194.554688
1628.119141	43508.812500
1627.085938	43382.500000
1626.052734	42944.097656
1625.019531	43064.687500
1623.985352	43318.265625
1622.952148	43429.070312
1621.917969	43266.605469
1620.883789	43099.363281
1619.849609	43280.238281
1618.815430	43303.960938
1617.780273	43117.464844
1616.745117	43015.585938
1615.709961	43406.476562
1614.674805	43096.894531
1613.639648	43214.789062
1612.604492	43161.242188
1611.568359	43023.230469
1610.532227	42955.253906
1609.496094	42872.820312
1608.459961	43050.949219
1607.423828	42712.859375
1606.386719	43308.140625
1605.349609	43211.226562
1604.312500	43471.125000
1603.275391	42708.996094
1602.238281	43311.078125
1601.200195	43255.187500
1600.163086	43201.722656
1599.125000	42760.507812
1598.086914	42796.246094
1597.047852	43017.359375
1596.009766	42759.355469
1594.970703	42862.460938
1593.931641	43237.445312
1592.892578	42570.527344
1591.853516	42774.636719
1590.814453	43091.707031
1589.774414	42665.632812
1588.734375	42934.523438
1587.694336	42717.750000
1586.654297	42700.535156
1585.614258	43344.128906
1584.573242	42858.312500
1583.532227	42699.351562
1582.492188	43167.277344
1581.450195	42528.070312
1580.409180	42654.941406
1579.368164	42724.160156
1578.326172	42788.550781
1577.284180	42932.097656
1576.242188	42950.843750
1575.200195	42947.988281
1574.157227	42827.625000
1573.115234	42750.457031
1572.072266	42769.214844
1571.029297	43080.390625
1569.985352	42550.273438
1568.942383	42703.230469
1567.898438	42875.296875
1566.855469	42798.195312
1565.811523	42582.222656
1564.767578	42826.042969
1563.722656	42753.773438
1562.678711	42971.148438
1561.633789	42851.011719
1560.588867	42704.601562
1559.543945	42890.761719
1558.499023	42818.535156
1557.453125	43272.441406
1556.407227	42712.414062
1555.361328	43288.093750
1554.315430	42878.832031
1553.269531	42849.679688
1552.223633	42483.648438
1551.176758	43013.562500
1550.129883	42661.960938
1549.083008	42897.925781
1548.036133	42868.789062
1546.989258	42794.300781
1545.941406	42941.804688
1544.893555	43177.546875
1543.845703	42587.691406
1542.797852	42670.742188
1541.750000	42453.246094
1540.701172	42657.902344
1539.652344	42967.382812
1538.603516	42797.621094
1537.554688	42713.718750
1536.505859	42839.539062
1535.456055	42674.648438
1534.407227	42438.355469
1533.357422	42695.140625
1532.307617	42606.558594
1531.256836	42958.449219
1530.207031	42936.500000
1529.156250	42452.851562
1528.105469	42666.562500
1527.054688	42561.402344
1526.003906	42456.281250
1524.953125	42263.199219
1523.901367	42674.140625
1522.849609	42431.160156
1521.797852	42314.242188
1520.746094	42499.183594
1519.694336	42629.406250
1518.641602	42481.625000
1517.588867	42628.429688
1516.536133	42722.929688
1515.483398	42587.082031
1514.430664	42370.562500
1513.376953	42355.871094
1512.323242	42557.136719
1511.269531	42490.214844
1510.215820	42610.722656
1509.162109	42448.937500
1508.107422	42306.179688
1507.053711	41867.097656
1505.999023	42352.695312
1504.944336	42124.699219
1503.888672	42505.804688
1502.833984	42472.144531
1501.778320	42365.054688
1500.722656	42151.425781
1499.666992	42473.046875
1498.611328	42077.164062
1497.555664	42126.449219
1496.499023	42383.996094
1495.442383	41782.464844
1494.385742	41890.921875
1493.329102	42162.554688
1492.271484	42403.347656
1491.214844	42168.753906
1490.157227	41886.960938
1489.099609	42047.296875
1488.041992	41824.707031
1486.983398	42065.335938
1485.925781	42166.484375
1484.867188	41951.074219
1483.808594	41851.460938
1482.750000	41933.699219
1481.691406	41793.984375
1480.631836	42109.882812
1479.572266	41859.265625
1478.512695	41207.609375
1477.453125	42040.089844
1476.393555	42030.207031
1475.333008	41499.136719
1474.273438	41590.738281
1473.212891	41837.898438
1472.152344	41589.988281
1471.090820	41879.472656
1470.030273	41711.753906
1468.968750	41718.417969
1467.907227	41593.179688
1466.845703	41599.859375
1465.784180	41677.167969
1464.721680	41883.925781
1463.660156	41556.324219
1462.597656	41619.476562
1461.535156	41579.078125
1460.472656	41611.621094
1459.409180	41902.867188
1458.345703	41342.742188
1457.283203	41483.453125
1456.219727	41205.687500
1455.155273	41315.816406
1454.091797	41543.398438
1453.027344	41418.480469
1451.963867	41598.980469
1450.899414	41377.800781
1449.833984	41062.769531
1448.769531	41524.960938
1447.704102	41261.656250
1446.639648	41770.578125
1445.574219	41371.222656
1444.507812	41190.195312
1443.442383	41438.484375
1442.375977	41705.445312
1441.310547	40893.695312
1440.244141	41622.500000
1439.177734	41157.957031
1438.110352	41120.109375
1437.043945	41227.546875
1435.976562	41618.414062
1434.909180	41322.843750
1433.841797	41217.070312
1432.773438	41172.210938
1431.706055	40881.558594
1430.637695	41084.878906
1429.569336	41136.007812
1428.500977	41154.363281
1427.432617	40910.703125
1426.363281	40929.085938
1425.294922	40933.433594
1424.225586	40958.820312
1423.156250	40862.632812
1422.085938	41142.781250
1421.016602	41256.910156
1419.946289	40880.347656
1418.875977	41118.289062
1417.805664	41176.300781
1416.735352	41091.843750
1415.664062	41408.996094
1414.593750	40815.640625
1413.522461	41137.390625
1412.451172	41092.667969
1411.379883	40882.308594
1410.307617	41479.121094
1409.235352	41023.878906
1408.164062	40965.210938
1407.090820	40878.582031
1406.018555	40633.480469
1404.946289	41017.710938
1403.873047	40733.054688
1402.799805	40975.011719
1401.726562	40676.488281
1400.653320	40860.144531
1399.580078	40873.753906
1398.505859	40861.753906
1397.431641	40854.406250
1396.357422	40470.054688
1395.283203	41021.207031
1394.208008	40718.382812
1393.133789	40825.035156
1392.058594	40999.085938
1390.983398	40733.625000
1389.908203	40663.531250
1388.832031	40591.140625
1387.756836	41013.753906
1386.680664	40990.113281
1385.604492	40655.195312
1384.528320	40452.781250
1383.451172	40826.343750
1382.375000	40997.773438
1381.297852	41106.464844
1380.220703	40340.125000
1379.143555	40831.777344
1378.065430	40536.738281
1376.988281	40805.484375
1375.910156	40772.628906
1374.832031	40751.378906
1373.753906	40973.566406
1372.674805	40486.363281
1371.596680	40659.847656
1370.517578	40647.894531
1369.438477	40587.292969
1368.359375	40679.585938
1367.279297	40579.625000
1366.200195	40570.003906
1365.120117	40495.562500
1364.040039	40441.976562
1362.959961	40869.773438
1361.878906	40742.093750
1360.798828	40651.472656
1359.717773	40701.976562
1358.636719	40370.878906
1357.555664	40793.671875
1356.473633	41040.617188
1355.392578	41086.382812
1354.310547	40649.148438
1353.228516	40854.390625
1352.146484	40620.640625
1351.063477	40918.199219
1349.981445	40714.539062
1348.898438	40672.566406
1347.815430	40526.730469
1346.732422	40918.714844
1345.649414	40978.257812
1344.565430	40661.710938
1343.481445	41009.621094
1342.397461	41186.734375
1341.313477	41133.191406
1340.229492	40874.472656
1339.144531	40659.644531
1338.059570	41067.156250
1336.974609	40792.453125
1335.889648	41017.789062
1334.804688	40862.968750
1333.718750	40903.964844
1332.632812	40774.546875
1331.546875	40843.164062
1330.460938	41112.007812
1329.375000	41251.878906
1328.288086	41276.652344
1327.201172	41161.078125
1326.114258	41121.449219
1325.027344	40980.648438
1323.940430	41237.667969
1322.852539	41214.136719
1321.764648	41055.000000
1320.676758	41500.304688
1319.588867	41272.242188
1318.500977	41016.691406
1317.412109	40963.351562
1316.324219	40595.425781
1315.235352	40746.519531
1314.145508	40748.343750
1313.056641	41101.324219
1311.966797	41210.933594
1310.876953	40618.441406
1309.787109	40585.875000
1308.697266	40658.816406
1307.607422	40259.359375
1306.516602	40297.937500
1305.425781	40937.070312
1304.334961	40425.476562
1303.244141	40486.914062
1302.153320	40131.367188
1301.061523	39998.136719
1299.969727	40503.906250
1298.877930	40249.292969
1297.786133	40166.472656
1296.694336	39941.765625
1295.601562	40042.109375
1294.508789	39929.617188
1293.416016	39954.429688
1292.323242	39906.035156
1291.230469	39853.085938
1290.136719	40024.222656
1289.042969	39527.777344
1287.949219	39778.906250
1286.855469	39737.433594
1285.760742	39686.839844
1284.666992	39519.757812
1283.572266	39804.957031
1282.477539	39516.882812
1281.381836	39532.566406
1280.287109	39664.660156
1279.191406	39668.898438
1278.095703	39397.023438
1277.000000	39458.339844
1275.904297	39558.414062
1274.808594	39268.453125
1273.711914	39056.125000
1272.615234	39213.207031
1271.518555	38912.066406
1270.421875	39518.078125
1269.324219	39093.941406
1268.226562	39617.683594
1267.129883	39309.847656
1266.031250	39072.718750
1264.933594	38806.074219
1263.835938	39151.914062
1262.737305	38928.593750
1261.638672	39005.746094
1260.540039	38878.093750
1259.441406	38470.671875
1258.341797	38732.093750
1257.242188	38775.109375
1256.142578	38952.253906
1255.042969	38561.023438
1253.943359	38583.585938
1252.842773	38587.957031
1251.743164	38794.539062
1250.642578	38748.894531
1249.541016	38526.109375
1248.440430	38401.050781
1247.338867	38770.972656
1246.238281	38300.878906
1245.136719	38436.917969
1244.034180	38407.261719
1242.932617	38164.355469
1241.831055	38479.539062
1240.728516	38826.355469
1239.625977	38726.351562
1238.522461	38367.933594
1237.419922	38601.246094
1236.316406	38691.695312
1235.213867	38451.300781
1234.110352	38469.250000
1233.005859	38086.281250
1231.902344	38179.015625
1230.797852	38590.968750
1229.693359	38226.292969
1228.588867	38726.355469
1227.484375	38269.003906
1226.379883	38223.597656
1225.274414	38139.750000
1224.168945	38119.261719
1223.063477	38582.703125
1221.958008	38320.218750
1220.851562	38462.460938
1219.746094	38202.351562
1218.639648	38037.242188
1217.533203	37998.710938
1216.425781	38265.136719
1215.319336	38325.945312
1214.211914	38246.730469
1213.104492	38436.203125
1211.997070	38083.871094
1210.889648	38221.394531
1209.781250	38155.789062
1208.672852	38286.476562
1207.564453	38342.683594
1206.456055	38220.707031
1205.347656	38385.128906
1204.238281	38411.972656
1203.128906	38053.382812
1202.019531	38125.343750
1200.910156	38084.621094
1199.800781	37958.312500
1198.690430	38136.105469
1197.580078	38171.964844
1196.469727	38014.179688
1195.359375	38146.839844
1194.249023	38536.027344
1193.137695	38335.503906
1192.026367	37714.328125
1190.915039	38211.347656
1189.803711	38456.296875
1188.691406	38177.222656
1187.580078	37943.214844
1186.467773	38084.675781
1185.355469	37942.906250
1184.242188	38046.113281
1183.129883	38194.210938
1182.016602	38070.464844
1180.903320	37926.550781
1179.790039	38097.039062
1178.676758	37710.714844
1177.562500	37872.199219
1176.449219	38305.160156
1175.334961	38024.460938
1174.219727	37719.183594
1173.105469	37806.523438
1171.990234	37893.832031
1170.875977	37653.761719
1169.760742	38027.996094
1168.644531	37931.429688
1167.529297	38002.957031
1166.413086	37915.386719
1165.297852	37424.632812
1164.181641	37708.976562
1163.064453	37646.132812
1161.948242	38055.707031
1160.831055	37556.324219
1159.713867	37851.621094
1158.596680	37600.832031
1157.479492	37332.234375
1156.362305	37620.695312
1155.244141	37663.046875
1154.125977	37470.601562
1153.007812	37530.847656
1151.888672	37387.667969
1150.770508	37409.910156
1149.651367	37599.722656
1148.532227	37420.859375
1147.413086	37351.503906
1146.293945	37273.242188
1145.173828	37351.296875
1144.053711	37362.351562
1142.933594	37330.992188
1141.813477	37259.476562
1140.693359	37460.179688
1139.572266	37292.746094
1138.451172	37203.429688
1137.330078	37408.488281
1136.208984	37401.671875
1135.086914	37390.394531
1133.965820	37147.343750
1132.843750	37151.710938
1131.721680	37267.472656
1130.599609	37196.082031
1129.476562	36975.503906
1128.353516	37144.667969
1127.230469	37157.933594
1126.107422	37206.800781
1124.984375	37048.687500
1123.860352	37142.058594
1122.737305	37001.808594
1121.613281	37284.207031
1120.488281	37075.039062
1119.364258	37019.363281
1118.239258	36945.921875
1117.115234	36865.835938
1115.990234	36756.890625
1114.864258	36665.757812
1113.739258	37174.421875
1112.613281	37043.265625
1111.487305	36996.535156
1110.361328	36812.171875
1109.235352	36441.417969
1108.108398	36863.097656
1106.982422	36727.671875
1105.855469	36736.496094
1104.728516	36621.101562
1103.600586	36738.609375
1102.473633	36778.464844
1101.345703	37057.730469
1100.217773	36893.593750
1099.089844	37039.765625
1097.960938	36647.472656
1096.833008	36521.156250
1095.704102	36673.957031
1094.575195	36835.558594
1093.446289	36788.976562
1092.316406	36877.445312
1091.187500	36764.472656
1090.057617	36678.093750
1088.927734	36635.992188
1087.796875	36934.562500
1086.666992	36784.054688
1085.536133	36940.964844
1084.405273	36883.367188
1083.274414	36690.949219
1082.143555	36463.242188
1081.011719	36942.691406
1079.879883	37057.449219
1078.748047	37010.914062
1077.616211	36617.675781
1076.484375	36792.039062
1075.351562	36697.007812
1074.218750	36767.550781
1073.085938	36601.937500
1071.953125	36661.437500
1070.820312	36851.066406
1069.686523	36520.105469
1068.552734	36546.503906
1067.418945	36694.152344
1066.284180	36555.179688
1065.150391	36275.199219
1064.015625	36389.761719
1062.880859	36524.105469
1061.746094	36563.679688
1060.611328	36411.632812
1059.475586	36270.652344
1058.339844	36611.859375
1057.204102	36754.839844
1056.068359	36492.824219
1054.932617	36750.187500
1053.795898	36853.457031
1052.659180	36536.578125
1051.522461	36413.335938
1050.385742	36529.796875
1049.248047	36635.226562
1048.110352	36366.964844
1046.972656	36380.082031
1045.834961	36197.652344
1044.697266	36239.351562
1043.558594	36746.652344
1042.419922	36243.644531
1041.281250	36500.468750
1040.142578	36432.320312
1039.003906	36337.855469
1037.864258	36236.843750
1036.724609	36258.726562
1035.584961	36317.890625
1034.445312	36692.835938
1033.304688	36550.164062
1032.165039	36455.773438
1031.024414	36223.328125
1029.883789	36188.199219
1028.742188	36100.496094
1027.601562	36133.312500
1026.459961	36036.886719
1025.318359	36238.320312
1024.176758	36091.550781
1023.034180	36126.527344
1021.892578	36187.753906
1020.750000	36126.410156
1019.607422	36535.484375
1018.463867	36253.160156
1017.321289	36244.324219
1016.177734	36097.730469
1015.034180	36316.296875
1013.890625	36158.808594
1012.747070	36130.324219
1011.602539	36326.906250
1010.458008	36403.261719
1009.313477	36420.609375
1008.168945	36173.699219
1007.024414	36553.539062
1005.878906	36182.257812
1004.733398	36116.683594
1003.587891	36190.800781
1002.442383	36048.882812
1001.295898	36190.605469
1000.149414	36105.445312
999.002930	36225.296875
997.856445	36168.500000
996.709961	35719.343750
995.562500	35943.812500
994.415039	36277.144531
993.267578	35671.351562
992.120117	35560.242188
990.972656	35939.195312
989.824219	35963.078125
988.675781	35882.453125
987.527344	35989.050781
986.378906	35814.867188
985.229492	35816.992188
984.080078	35673.355469
982.930664	36201.871094
981.781250	36129.976562
980.631836	36071.156250
979.481445	36142.789062
978.331055	36038.339844
977.180664	35657.949219
976.030273	35892.562500
974.879883	35927.238281
973.728516	35901.085938
972.577148	35857.574219
971.425781	35790.191406
970.273438	35772.757812
969.122070	35907.250000
967.969727	35592.523438
966.817383	35815.945312
965.665039	36097.847656
964.511719	36008.796875
963.359375	36132.273438
962.206055	36023.734375
961.052734	35817.703125
959.898438	36099.335938
958.745117	35876.027344
957.590820	35949.578125
956.436523	35966.789062
955.282227	35940.683594
954.127930	35871.281250
952.972656	35721.812500
951.817383	35992.265625
950.662109	35522.570312
949.506836	36126.136719
948.350586	35805.839844
947.195312	35926.847656
946.039062	35686.707031
944.882812	35695.269531
943.725586	35775.160156
942.569336	35807.472656
941.412109	35924.039062
940.254883	35956.308594
939.097656	36083.605469
937.939453	35686.085938
936.782227	35552.125000
935.624023	35692.371094
934.465820	35549.820312
933.306641	35422.429688
932.148438	35933.710938
930.989258	35553.906250
929.830078	35506.378906
928.670898	35756.441406
927.510742	35555.816406
926.351562	35566.511719
925.191406	35618.144531
924.031250	35355.164062
922.871094	35628.714844
921.709961	35581.222656
920.548828	35589.738281
919.387695	35307.574219
918.226562	35374.257812
917.065430	35415.089844
915.903320	35597.933594
914.741211	35371.910156
913.579102	35507.363281
912.416992	35221.214844
911.254883	35384.601562
910.091797	35341.523438
908.928711	35210.328125
907.765625	35255.414062
906.601562	35586.273438
905.438477	35216.628906
904.274414	35871.718750
903.110352	35362.558594
901.946289	35317.386719
900.781250	35293.695312
899.617188	35119.761719
898.452148	35222.726562
897.287109	35368.566406
896.121094	35168.964844
894.956055	35336.207031
893.790039	35198.875000
892.624023	35175.222656
891.458008	35376.664062
890.291016	35115.085938
889.125000	35100.031250
887.958008	35151.394531
886.791016	35234.871094
885.623047	35014.199219
884.456055	35134.066406
883.288086	35211.070312
882.120117	35037.609375
880.952148	34954.093750
879.783203	34947.636719
878.615234	34945.460938
877.446289	34971.089844
876.277344	35195.585938
875.107422	35161.289062
873.938477	35193.269531
872.768555	35315.003906
871.598633	34925.968750
870.428711	34814.824219
869.257812	35346.695312
868.087891	35308.125000
866.916992	35278.109375
865.746094	35102.929688
864.575195	35226.648438
863.403320	35173.183594
862.231445	35446.203125
861.059570	34774.035156
859.887695	35115.281250
858.715820	35089.593750
857.542969	35381.613281
856.370117	35161.886719
855.197266	35065.863281
854.024414	35236.253906
852.850586	35408.707031
851.676758	35287.125000
850.503906	35067.613281
849.329102	34982.335938
848.155273	35305.863281
846.980469	35284.429688
845.805664	35322.593750
844.630859	35413.937500
843.456055	35413.765625
842.280273	35292.347656
841.105469	35334.730469
839.929688	35236.757812
838.753906	35385.425781
837.577148	35006.914062
836.400391	35353.199219
835.224609	35584.621094
834.046875	35066.070312
832.870117	35560.820312
831.693359	35233.582031
830.515625	35101.792969
829.337891	35555.925781
828.160156	35528.117188
826.981445	35220.218750
825.803711	35584.968750
824.625000	35544.437500
823.446289	35410.605469
822.266602	35232.292969
821.087891	35310.562500
819.908203	35371.847656
818.728516	35257.210938
817.548828	35329.074219
816.368164	35777.984375
815.188477	35635.800781
814.007812	35106.140625
812.827148	35887.246094
811.645508	35035.968750
810.464844	35516.257812
809.283203	35082.230469
808.101562	35549.632812
806.919922	34855.574219
805.737305	35242.480469
804.554688	35032.953125
803.373047	35455.617188
802.189453	35203.851562
801.006836	35336.800781
799.823242	35249.953125
798.640625	35156.800781
797.457031	35181.960938
796.272461	35382.382812
795.088867	35219.578125
793.904297	35314.371094
792.719727	34991.230469
791.535156	35316.035156
790.350586	35400.203125
789.165039	35364.097656
787.979492	35066.492188
786.793945	34973.527344
785.608398	35064.015625
784.421875	35040.640625
783.236328	35137.402344
782.049805	35250.976562
780.862305	35086.433594
779.675781	35216.824219
778.488281	34934.414062
777.300781	35096.363281
776.113281	35275.093750
774.925781	35912.582031
773.737305	37865.027344
772.549805	35390.089844
771.361328	34828.183594
770.171875	35069.882812
768.983398	35214.765625
767.793945	35277.601562
766.604492	35260.535156
765.415039	34951.355469
764.225586	35213.808594
763.035156	34923.656250
761.845703	35116.703125
760.655273	34952.675781
759.463867	35051.160156
758.273438	35116.015625
757.082031	35122.082031
755.890625	35449.203125
754.699219	34840.468750
753.507812	35121.371094
752.315430	35026.753906
751.123047	35116.695312
749.930664	34850.199219
748.738281	35116.210938
747.544922	34962.976562
746.351562	35050.761719
745.158203	34899.691406
743.964844	34935.089844
742.771484	34993.507812
741.577148	34846.714844
740.382812	34965.832031
739.188477	34959.324219
737.994141	34998.855469
736.798828	34990.250000
735.603516	34941.898438
734.408203	34809.910156
733.212891	34673.785156
732.016602	34863.851562
730.821289	35369.476562
729.625000	35266.757812
728.428711	34921.691406
727.231445	35034.265625
726.035156	34965.082031
724.837891	35025.394531
723.640625	35004.257812
722.442383	34826.558594
721.245117	34845.117188
720.046875	35047.300781
718.848633	35407.976562
717.650391	35005.039062
716.451172	34890.066406
715.252930	34864.796875
714.053711	35056.359375
712.854492	34995.632812
711.654297	35007.867188
710.455078	35251.378906
709.254883	35140.644531
708.054688	35029.953125
706.853516	34952.617188
705.653320	35248.003906
704.452148	35085.304688
703.250977	34916.417969
702.049805	35224.132812
700.847656	35169.710938
699.646484	35244.277344
698.444336	35156.593750
697.242188	35322.625000
696.039062	34891.917969
694.836914	35099.507812
693.633789	35298.707031
692.430664	35221.472656
691.227539	35590.921875
690.023438	35382.804688
688.819336	35131.156250
687.615234	35157.820312
686.411133	35113.890625
685.207031	35217.339844
684.001953	35150.589844
682.796875	35442.789062
681.591797	35127.097656
680.386719	35023.062500
679.180664	35252.910156
677.974609	35267.062500
676.768555	35024.175781
675.562500	35436.265625
674.356445	35330.191406
673.149414	35137.144531
671.942383	35145.082031
670.735352	35687.296875
669.527344	35440.457031
668.320312	35326.191406
667.112305	35300.964844
665.904297	35575.796875
664.695312	35279.500000
663.487305	35392.882812
662.278320	35454.519531
661.069336	35170.812500
659.860352	35162.171875
658.650391	35385.039062
657.440430	35382.558594
656.230469	35460.660156
655.020508	35292.894531
653.810547	34821.566406
652.599609	34996.785156
651.388672	35056.312500
650.177734	35043.562500
648.966797	35228.953125
647.754883	35084.109375
646.542969	35236.410156
645.331055	34722.382812
644.119141	35210.859375
642.906250	35301.183594
641.694336	34991.527344
640.481445	34970.550781
639.267578	34988.738281
638.054688	35052.250000
636.840820	35043.628906
635.626953	35195.667969
634.413086	34869.890625
633.199219	35145.433594
631.984375	35180.027344
630.769531	34975.863281
629.554688	34963.140625
628.339844	35003.917969
627.124023	35071.414062
625.909180	35134.773438
624.693359	35191.937500
623.476562	35123.671875
622.260742	35104.761719
621.043945	35342.742188
619.827148	35354.613281
618.610352	35762.957031
617.393555	35583.730469
616.175781	35792.683594
614.958008	35730.542969
613.740234	35902.441406
612.522461	35770.519531
611.303711	35745.351562
610.084961	35993.050781
608.866211	35578.113281
607.647461	35423.789062
606.427734	35246.964844
605.208984	35070.203125
603.989258	35026.738281
602.768555	35407.484375
601.548828	34976.726562
600.328125	35349.144531
599.107422	34760.847656
597.886719	35266.265625
596.666016	34831.753906
595.444336	35171.164062
594.222656	34939.441406
593.000977	35076.125000
591.779297	34975.437500
590.556641	34909.558594
589.334961	34723.046875
588.112305	34691.996094
586.888672	34789.746094
585.666016	34905.855469
584.442383	34823.695312
583.218750	34806.945312
581.995117	35096.613281
580.770508	34906.210938
579.546875	34807.773438
578.322266	34905.359375
577.097656	35051.902344
575.872070	34822.871094
574.647461	34993.851562
573.421875	34762.875000
572.196289	34813.457031
570.969727	35006.773438
569.744141	34649.507812
568.517578	34702.117188
567.291016	35196.988281
566.064453	35139.433594
564.836914	34835.375000
563.609375	34403.093750
562.381836	34488.281250
561.154297	34944.027344
559.926758	34723.699219
558.698242	34735.492188
557.469727	34771.703125
556.241211	34708.199219
555.012695	34793.222656
553.783203	34693.121094
552.553711	34625.593750
551.324219	34875.265625
550.094727	34614.609375
548.864258	34622.332031
547.633789	34790.578125
546.403320	34649.945312
545.172852	34679.996094
543.941406	34401.335938
542.710938	34849.699219
541.479492	34518.324219
540.247070	34390.050781
539.015625	34574.343750
537.783203	34539.433594
536.550781	34248.929688
535.318359	34258.714844
534.085938	34201.574219
532.852539	34182.972656
531.619141	34409.656250
530.385742	34220.777344
529.152344	34088.707031
527.917969	34074.187500
526.683594	34333.125000
525.449219	34154.523438
524.214844	33957.761719
522.979492	34147.738281
521.744141	34054.277344
520.508789	34153.097656
519.273438	34288.292969
518.037109	34273.746094
516.801758	34040.773438
515.565430	33967.632812
514.328125	34088.605469
513.091797	33989.203125
511.854492	33988.863281
510.617188	33863.246094
509.379883	34376.062500
508.142578	34191.839844
506.904297	34304.546875
505.666016	34376.828125
504.427734	34513.679688
503.189453	34260.941406
501.950195	34034.531250
500.710938	34302.503906
499.471680	34449.343750
498.232422	34412.597656
496.992188	34458.539062
495.751953	34250.437500
494.511719	34427.406250
493.271484	34235.511719
492.030273	34214.953125
490.790039	34105.761719
489.548828	34137.597656
488.306641	34388.921875
487.065430	34221.363281
485.823242	34106.207031
484.581055	33966.941406
483.338867	34057.121094
482.095703	33976.257812
480.853516	34474.730469
479.610352	34261.082031
478.367188	33840.410156
477.123047	34061.191406
475.879883	34460.777344
474.635742	34367.863281
473.391602	34057.988281
472.146484	33977.230469
470.902344	34268.066406
469.657227	34022.640625
468.412109	34263.164062
467.166016	34078.042969
465.920898	34135.832031
464.674805	34253.792969
463.428711	33968.464844
462.182617	34082.398438
460.935547	34045.878906
459.688477	33925.164062
458.441406	33736.332031
457.194336	33882.285156
455.946289	33990.105469
454.699219	33987.691406
453.451172	33955.230469
452.202148	33832.656250
450.954102	33906.355469
449.705078	33667.718750
448.456055	33817.480469
447.207031	33765.062500
445.958008	33468.554688
444.708008	33844.320312
443.458008	33427.902344
442.208008	33699.542969
440.957031	33567.214844
439.707031	33616.839844
438.456055	33724.402344
437.205078	33797.957031
435.953125	33523.851562
434.702148	33571.445312
433.450195	33501.187500
432.198242	33556.750000
430.945312	33566.371094
429.693359	33701.734375
428.440430	33757.222656
427.187500	33722.902344
425.934570	33570.902344
424.680664	33744.050781
423.426758	33661.890625
422.172852	34082.167969
420.918945	34177.378906
419.664062	34055.320312
418.410156	34369.675781
417.155273	34640.082031
415.899414	34818.761719
414.644531	35057.117188
413.388672	35432.761719
412.132812	35155.320312
410.876953	35278.035156
409.620117	34692.285156
408.364258	34576.292969
407.107422	34645.332031
405.849609	33757.734375
404.592773	33954.160156
403.334961	33717.113281
402.077148	33543.765625
400.819336	33563.242188
399.561523	33469.460938
398.302734	33218.777344
397.043945	33281.996094
395.785156	33293.562500
394.525391	33287.250000
393.266602	33090.378906
392.006836	33153.570312
390.747070	33184.988281
389.486328	33139.019531
388.226562	33402.496094
386.965820	33273.207031
385.705078	33096.378906
384.443359	33092.085938
383.182617	33113.558594
381.920898	32928.933594
380.659180	33245.632812
379.396484	32801.550781
378.134766	33062.699219
376.872070	32860.394531
375.609375	32982.843750
374.346680	33043.886719
373.083008	33221.664062
371.819336	32833.484375
370.555664	32999.363281
369.291992	32688.505859
368.027344	32874.121094
366.762695	32852.062500
365.498047	32814.199219
364.233398	33055.019531
362.968750	32827.429688
361.703125	32852.808594
360.437500	32990.765625
359.170898	32765.289062
357.905273	32802.507812
356.638672	33297.707031
355.372070	33277.566406
354.105469	33283.089844
352.837891	33320.171875
351.571289	33414.449219
350.303711	33652.660156
349.035156	33600.914062
347.767578	33683.250000
346.499023	33617.714844
345.230469	33908.914062
343.961914	33900.500000
342.692383	33959.066406
341.423828	33369.601562
340.154297	33128.914062
338.883789	32677.648438
337.614258	32775.769531
336.343750	32507.775391
335.073242	32582.273438
333.802734	32536.730469
332.532227	32371.216797
331.260742	32479.126953
329.989258	32274.357422
328.717773	32311.468750
327.445312	32385.910156
326.173828	32413.158203
324.901367	32159.429688
323.627930	31949.015625
322.355469	32414.302734
321.082031	32113.587891
319.808594	32091.771484
318.535156	32048.371094
317.261719	32328.802734
315.987305	32357.968750
314.712891	32416.548828
313.438477	32292.695312
312.164062	32672.873047
310.888672	32225.503906
309.613281	32683.958984
308.337891	32875.687500
307.061523	33184.914062
305.786133	33125.699219
304.509766	33419.085938
303.233398	33639.902344
301.956055	34485.250000
300.678711	34590.269531
299.402344	34573.894531
298.124023	35224.835938
296.846680	35427.480469
295.568359	36559.234375
294.290039	37062.734375
293.011719	36766.269531
291.733398	36286.136719
290.454102	34848.378906
289.174805	33876.300781
287.895508	33522.042969
286.616211	32722.498047
285.335938	32618.599609
284.055664	32348.750000
282.775391	32403.109375
281.494141	32082.644531
280.213867	32215.099609
278.932617	31836.250000
277.651367	31681.904297
276.369141	31820.207031
275.087891	31506.001953
273.805664	31652.082031
272.523438	31544.671875
271.240234	31628.312500
269.958008	31522.894531
268.674805	31791.599609
267.390625	31627.746094
266.107422	32071.615234
264.823242	32316.691406
263.539062	32501.318359
262.254883	33022.621094
260.970703	33644.921875
259.685547	34465.453125
258.400391	35760.347656
257.115234	37068.363281
255.830078	37631.070312
254.543945	38051.628906
253.257812	37875.242188
251.971680	36641.632812
250.684570	35775.753906
249.398438	34506.101562
248.111328	33790.523438
246.824219	33081.042969
245.536133	32711.628906
244.248047	32091.923828
242.960938	31588.910156
241.671875	31299.552734
240.383789	31256.707031
239.094727	30816.212891
237.805664	31002.330078
236.516602	30932.416016
235.227539	30594.982422
233.937500	31011.695312
232.647461	31381.736328
231.357422	31933.769531
230.066406	32917.593750
228.775391	33761.589844
227.485352	34469.703125
226.193359	33661.554688
224.902344	32170.388672
223.610352	31287.505859
222.318359	30702.951172
221.026367	30453.312500
219.733398	30194.097656
218.441406	29832.482422
217.148438	29397.531250
215.854492	29813.337891
214.561523	29513.847656
213.267578	29249.255859
211.973633	29189.560547
210.679688	28994.669922
209.384766	29199.634766
208.090820	29120.669922
206.795898	28889.218750
205.500000	29148.126953
204.205078	28706.402344
202.909180	28602.503906
201.613281	28651.042969
200.317383	28672.560547
199.020508	28802.054688
197.723633	28856.306641
196.426758	28259.000000
195.129883	28475.222656
193.832031	28340.667969
192.534180	28454.683594
191.236328	28391.447266
189.938477	28316.679688
188.639648	28032.070312
187.341797	28298.130859
186.042969	28234.968750
184.743164	28291.134766
183.444336	28168.353516
182.144531	28314.917969
180.844727	28244.101562
179.543945	28107.935547
178.244141	28215.972656
176.943359	28012.587891
175.642578	27916.896484
174.340820	27926.914062
173.040039	28371.070312
171.738281	27946.935547
170.435547	28047.189453
169.133789	27965.015625
167.831055	27994.203125
166.528320	27819.949219
165.225586	27881.769531
163.922852	27680.744141
162.619141	27535.416016
161.315430	27579.992188
160.011719	27453.910156
158.708008	27504.234375
157.403320	27535.371094
156.098633	27459.187500
154.793945	27360.041016
153.488281	27308.818359
152.182617	27255.699219
150.876953	27474.490234
149.571289	27159.087891
148.265625	27016.066406
146.958984	27028.101562
145.652344	27158.753906
144.345703	26931.642578
143.038086	26997.234375
141.730469	26946.156250
140.422852	26828.185547
139.115234	26679.675781
137.806641	26829.345703
136.498047	26860.494141
135.189453	26356.740234
133.880859	26279.097656
132.571289	26350.431641
131.262695	25797.419922
129.952148	25551.947266
128.642578	25041.287109
127.332031	24519.373047
126.021484	24508.935547
124.710938	23909.119141
123.400391	23319.068359
122.088867	23066.718750
120.777344	22322.644531
119.465820	21409.226562
