#Wave		#Intensity
2199.041016	924.245483
2197.943359	869.610291
2196.843750	842.151428
2195.746094	853.388611
2194.646484	885.099976
2193.548828	855.377258
2192.449219	846.135498
2191.349609	868.735291
2190.250000	891.327515
2189.150391	854.803345
2188.050781	897.847473
2186.951172	829.517334
2185.849609	886.184814
2184.750000	851.957825
2183.650391	872.258362
2182.548828	908.449951
2181.447266	826.550720
2180.347656	883.171082
2179.246094	883.022827
2178.144531	837.482605
2177.042969	846.418884
2175.939453	902.997742
2174.837891	859.745483
2173.736328	843.724609
2172.632812	868.527588
2171.531250	868.381775
2170.427734	829.698120
2169.324219	838.625000
2168.222656	899.670837
2167.119141	813.419678
2166.015625	817.813904
2164.912109	853.917053
2163.806641	810.745300
2162.703125	880.801514
2161.599609	864.806335
2160.494141	853.343567
2159.390625	880.357788
2158.285156	864.370667
2157.179688	857.438354
2156.074219	873.128235
2154.968750	850.365479
2153.863281	859.267578
2152.757812	870.427429
2151.652344	813.769470
2150.544922	829.453369
2149.439453	876.767944
2148.332031	881.139282
2147.226562	840.330078
2146.119141	860.515991
2145.011719	799.400208
2143.904297	837.648682
2142.796875	878.141724
2141.689453	864.451843
2140.582031	880.103271
2139.474609	850.623474
2138.365234	864.015991
2137.257812	904.470459
2136.148438	841.174011
2135.041016	841.032593
2133.931641	870.198425
2132.822266	838.495850
2131.712891	903.710449
2130.603516	878.772644
2129.494141	916.923950
2128.382812	828.922058
2127.273438	896.346497
2126.164062	853.412537
2125.052734	837.509460
2123.941406	844.121582
2122.832031	868.736328
2121.720703	841.587463
2120.609375	818.947327
2119.498047	836.805420
2118.386719	841.162903
2117.275391	917.477905
2116.162109	786.919739
2115.050781	928.409058
2113.937500	867.568115
2112.826172	826.972412
2111.712891	833.573792
2110.599609	849.158691
2109.486328	853.507996
2108.373047	819.678955
2107.259766	801.578491
2106.146484	857.567078
2105.033203	846.199951
2103.919922	789.952942
2102.804688	908.741821
2101.691406	834.555725
2100.576172	852.359680
2099.460938	834.274841
2098.345703	831.892090
2097.230469	809.332886
2096.115234	876.442932
2095.000000	867.330750
2093.884766	869.425537
2092.769531	880.481201
2091.652344	860.172668
2090.537109	846.589905
2089.419922	803.901123
2088.302734	835.110352
2087.187500	848.400940
2086.070312	839.305481
2084.953125	870.492920
2083.835938	841.260254
2082.716797	794.141174
2081.599609	811.900574
2080.482422	901.214417
2079.363281	858.580750
2078.246094	811.490417
2077.126953	773.356506
2076.007812	835.799438
2074.888672	795.439758
2073.769531	857.857910
2072.650391	815.274475
2071.531250	841.936157
2070.412109	859.657349
2069.292969	788.072510
2068.171875	848.207092
2067.052734	890.467346
2065.931641	836.764404
2064.810547	832.161438
2063.689453	847.635559
2062.568359	805.118042
2061.447266	827.281067
2060.326172	829.371155
2059.205078	867.126343
2058.083984	842.464050
2056.960938	877.975891
2055.839844	831.040161
2054.716797	817.534363
2053.595703	772.851807
2052.472656	810.578186
2051.349609	794.856140
2050.226562	843.696594
2049.103516	823.522705
2047.980469	834.510681
2046.855469	809.895142
2045.732422	854.250793
2044.607422	816.294739
2043.484375	838.395691
2042.359375	816.019470
2041.234375	795.873840
2040.111328	826.857971
2038.986328	868.943359
2037.861328	819.913086
2036.734375	868.650269
2035.609375	795.202942
2034.484375	861.694702
2033.357422	821.580566
2032.232422	783.700012
2031.105469	823.523132
2029.978516	887.745789
2028.853516	838.778198
2027.726562	816.450562
2026.599609	827.403992
2025.470703	780.689209
2024.343750	762.817505
2023.216797	818.116760
2022.087891	749.259644
2020.960938	833.355286
2019.832031	855.374573
2018.705078	828.642761
2017.576172	810.780945
2016.447266	830.577942
2015.318359	795.005737
2014.189453	781.586792
2013.060547	819.088684
2011.929688	810.096863
2010.800781	865.285278
2009.669922	794.334961
2008.541016	803.049866
2007.410156	794.066772
2006.279297	756.336975
2005.148438	767.265015
2004.017578	802.507690
2002.886719	775.847473
2001.755859	786.766541
2000.625000	833.036255
1999.494141	797.547180
1998.361328	781.950195
1997.228516	834.822754
1996.097656	843.514404
1994.964844	797.008545
1993.832031	807.910950
1992.699219	827.637756
1991.566406	860.597900
1990.433594	774.407227
1989.300781	816.188843
1988.166016	807.228760
1987.033203	791.656189
1985.898438	822.389587
1984.765625	789.184265
1983.630859	800.071167
1982.496094	749.251343
1981.361328	786.580994
1980.226562	784.245117
1979.091797	777.504883
1977.957031	750.947205
1976.820312	786.049377
1975.685547	768.304932
1974.548828	805.593323
1973.414062	792.252991
1972.277344	776.716736
1971.140625	855.783936
1970.003906	761.057068
1968.867188	763.127563
1967.730469	800.378906
1966.593750	751.877197
1965.457031	784.721619
1964.318359	747.227539
1963.181641	791.048279
1962.042969	801.899475
1960.904297	777.601135
1959.767578	711.582336
1958.628906	790.513367
1957.490234	750.860657
1956.351562	814.392395
1955.210938	781.333313
1954.072266	774.617981
1952.933594	833.725342
1951.792969	765.581360
1950.654297	820.283691
1949.513672	789.444275
1948.373047	855.086609
1947.232422	808.906616
1946.091797	808.769775
1944.951172	705.636292
1943.810547	738.382629
1942.669922	786.452515
1941.527344	742.513367
1940.386719	794.946106
1939.244141	761.968140
1938.101562	726.812134
1936.960938	779.220825
1935.818359	792.219666
1934.675781	772.392822
1933.533203	765.698975
1932.388672	794.004822
1931.246094	734.822205
1930.103516	800.295776
1928.958984	765.180603
1927.816406	741.006653
1926.671875	756.179626
1925.527344	729.830139
1924.382812	729.706543
1923.238281	782.008118
1922.093750	744.747498
1920.949219	731.519592
1919.804688	753.228394
1918.658203	691.979614
1917.513672	772.616089
1916.367188	737.570618
1915.222656	733.082153
1914.076172	708.962280
1912.929688	706.661194
1911.783203	723.986938
1910.636719	717.323364
1909.490234	739.001282
1908.343750	712.721191
1907.195312	754.005371
1906.048828	784.381287
1904.900391	747.214478
1903.753906	742.731628
1902.605469	755.672180
1901.457031	757.721497
1900.308594	720.584229
1899.160156	689.989380
1898.011719	757.336304
1896.861328	720.217957
1895.712891	722.271362
1894.564453	700.397461
1893.414062	772.046448
1892.263672	763.217957
1891.115234	769.610718
1889.964844	743.396179
1888.814453	732.403625
1887.664062	730.106506
1886.513672	723.465027
1885.361328	738.547729
1884.210938	727.563354
1883.058594	714.411255
1881.908203	722.974487
1880.755859	733.705505
1879.603516	740.092163
1878.453125	733.456665
1877.300781	752.858887
1876.148438	741.884949
1874.994141	756.941284
1873.841797	700.431396
1872.689453	693.808167
1871.535156	721.871643
1870.382812	717.414368
1869.228516	773.635864
1868.074219	743.171143
1866.919922	695.386169
1865.765625	729.923279
1864.611328	764.448669
1863.457031	762.153748
1862.302734	714.397888
1861.148438	725.099060
1859.992188	763.929932
1858.837891	765.964050
1857.681641	705.259583
1856.525391	739.747986
1855.369141	715.833435
1854.212891	702.738281
1853.056641	706.942810
1851.900391	747.892029
1850.744141	747.765076
1849.585938	689.296448
1848.429688	706.462891
1847.271484	680.422119
1846.115234	751.576782
1844.957031	721.218506
1843.798828	805.295837
1842.640625	712.339172
1841.482422	735.958801
1840.324219	740.149597
1839.166016	696.873779
1838.005859	739.898193
1836.847656	754.869934
1835.687500	690.049561
1834.527344	715.804810
1833.369141	685.503845
1832.208984	741.425354
1831.048828	730.524719
1829.888672	784.264954
1828.726562	704.426025
1827.566406	732.306274
1826.406250	680.498474
1825.244141	727.751221
1824.083984	675.961731
1822.921875	714.589661
1821.759766	703.708191
1820.597656	710.043518
1819.435547	765.856201
1818.273438	722.707703
1817.111328	729.036560
1815.949219	707.410767
1814.785156	741.687683
1813.623047	724.365967
1812.458984	661.919250
1811.296875	732.714600
1810.132812	728.293335
1808.968750	648.693787
1807.804688	728.045715
1806.640625	695.713013
1805.476562	729.945068
1804.310547	695.476440
1803.146484	755.450867
1801.980469	690.948303
1800.816406	699.412598
1799.650391	692.858398
1798.484375	692.740601
1797.318359	714.066223
1796.152344	707.512817
1794.986328	782.418945
1793.820312	722.274902
1792.654297	694.294556
1791.486328	694.176453
1790.320312	706.911255
1789.152344	663.955200
1787.984375	702.387939
1786.816406	715.114807
1785.648438	706.430298
1784.480469	712.731140
1783.312500	706.189941
1782.144531	721.046997
1780.976562	725.202759
1779.806641	722.940491
1778.638672	671.493103
1777.468750	724.832581
1776.298828	681.953491
1775.128906	698.936829
1773.958984	709.503113
1772.789062	696.562195
1771.619141	719.943237
1770.449219	734.772461
1769.279297	709.020142
1768.107422	679.006042
1766.937500	742.936707
1765.765625	759.886292
1764.593750	680.793457
1763.421875	727.620789
1762.250000	667.761047
1761.078125	772.167236
1759.906250	650.472107
1758.734375	735.654602
1757.560547	697.153870
1756.388672	665.061035
1755.214844	724.622559
1754.042969	711.713867
1752.869141	666.851746
1751.695312	666.738159
1750.521484	715.609741
1749.347656	668.640442
1748.173828	726.011292
1746.998047	676.927429
1745.824219	719.378845
1744.648438	657.544983
1743.474609	702.112793
1742.298828	672.211670
1741.123047	682.731567
1739.947266	676.235596
1738.771484	701.634338
1737.595703	684.508301
1736.419922	697.144287
1735.244141	677.899780
1734.066406	648.038208
1732.890625	722.280090
1731.712891	681.801147
1730.535156	739.022888
1729.357422	728.280579
1728.181641	700.558655
1727.001953	704.684265
1725.824219	659.998291
1724.646484	668.373047
1723.468750	710.688232
1722.289062	710.567017
1721.111328	693.479980
1719.931641	687.000610
1718.751953	689.003418
1717.572266	654.971558
1716.392578	669.694824
1715.212891	652.629211
1714.033203	665.229248
1712.853516	690.534241
1711.671875	654.413086
1710.492188	734.765747
1709.310547	658.424072
1708.130859	668.895508
1706.949219	651.850220
1705.767578	691.943665
1704.585938	645.280762
1703.404297	598.633728
1702.222656	683.129700
1701.039062	693.586060
1699.857422	678.668091
1698.673828	657.413574
1697.492188	663.641907
1696.308594	684.660095
1695.125000	657.076965
1693.941406	633.728088
1692.757812	646.292358
1691.574219	730.650208
1690.390625	641.848999
1689.205078	641.739380
1688.021484	683.842346
1686.835938	652.071594
1685.652344	677.279114
1684.466797	651.848938
1683.281250	687.593750
1682.095703	708.564514
1680.910156	687.358887
1679.724609	655.619934
1678.539062	647.077026
1677.351562	695.436279
1676.166016	731.136902
1674.978516	629.892212
1673.791016	676.123230
1672.605469	650.736450
1671.417969	713.792725
1670.230469	644.198425
1669.042969	658.822388
1667.853516	688.172913
1666.666016	673.326294
1665.478516	685.833923
1664.289062	633.131104
1663.099609	651.950500
1661.912109	704.406738
1660.722656	681.160583
1659.533203	685.248108
1658.343750	651.504944
1657.154297	651.393555
1655.962891	642.878601
1654.773438	630.165405
1653.583984	653.159790
1652.392578	665.647095
1651.201172	646.638062
1650.011719	638.131042
1648.820312	650.614441
1647.628906	646.306396
1646.437500	606.333130
1645.244141	677.550598
1644.052734	660.656128
1642.861328	633.282654
1641.667969	662.526794
1640.476562	624.681091
1639.283203	660.204285
1638.089844	622.371887
1636.896484	636.931580
1635.703125	626.348572
1634.509766	651.374878
1633.316406	644.981140
1632.121094	651.152039
1630.927734	600.799561
1629.732422	634.185059
1628.539062	644.539856
1627.343750	636.060364
1626.148438	661.054871
1624.953125	652.575378
1623.757812	688.014648
1622.562500	627.261597
1621.367188	654.330933
1620.169922	677.210632
1618.974609	639.478394
1617.777344	639.368896
1616.580078	645.526733
1615.384766	624.528931
1614.187500	641.128967
1612.990234	611.787048
1611.791016	647.172424
1610.593750	624.101379
1609.396484	628.168396
1608.197266	611.368164
1607.000000	648.815491
1605.800781	690.421753
1604.601562	648.593323
1603.404297	644.311951
1602.205078	608.760071
1601.005859	610.740234
1599.804688	596.047058
1598.605469	633.452026
1597.406250	597.926270
1596.205078	639.484009
1595.005859	612.299988
1593.804688	662.170227
1592.603516	597.516602
1591.402344	618.230103
1590.201172	665.992371
1589.000000	626.341736
1587.798828	640.797974
1586.595703	630.287415
1585.394531	632.259155
1584.191406	642.548035
1582.990234	671.545105
1581.787109	627.776672
1580.583984	586.101624
1579.380859	656.653748
1578.177734	610.832642
1576.974609	646.042114
1575.771484	608.546265
1574.566406	627.131287
1573.363281	637.404968
1572.158203	643.523315
1570.953125	606.053528
1569.750000	608.024780
1568.544922	609.995300
1567.339844	638.933105
1566.134766	655.416382
1564.927734	574.427856
1563.722656	636.531067
1562.515625	642.640991
1561.310547	640.458069
1560.103516	580.250793
1558.898438	602.942932
1557.691406	582.123352
1556.484375	635.876221
1555.277344	610.916321
1554.068359	596.317627
1552.861328	633.478821
1551.654297	635.439941
1550.445312	637.400391
1549.238281	595.908508
1548.029297	653.731812
1546.820312	666.030151
1545.611328	680.392273
1544.402344	616.176575
1543.193359	591.262634
1541.984375	603.563110
1540.773438	605.526123
1539.564453	611.621094
1538.353516	584.658936
1537.142578	565.968384
1535.933594	658.806274
1534.722656	625.655273
1533.511719	609.031738
1532.300781	592.413879
1531.087891	596.439758
1529.876953	567.449036
1528.666016	598.298035
1527.453125	600.257996
1526.242188	620.778809
1525.029297	597.989807
1523.816406	620.565613
1522.603516	587.477783
1521.390625	643.023132
1520.177734	579.033508
1518.962891	554.210876
1517.750000	589.134155
1516.537109	547.841797
1515.322266	564.221313
1514.107422	595.007080
1512.892578	574.319885
1511.679688	582.453796
1510.464844	627.625000
1509.248047	588.425903
1508.033203	563.639832
1506.818359	604.677490
1505.601562	645.700989
1504.386719	567.461304
1503.169922	612.588379
1501.953125	587.819336
1500.736328	569.223694
1499.519531	601.999512
1498.302734	585.462036
1497.085938	583.307434
1495.869141	585.260681
1494.650391	591.319641
1493.433594	578.900940
1492.214844	576.748901
1490.998047	558.180542
1489.779297	605.275513
1488.560547	656.457153
1487.341797	586.607666
1486.123047	592.658936
1484.902344	580.254761
1483.683594	606.805176
1482.462891	606.700806
1481.244141	567.659485
1480.023438	579.855591
1478.802734	594.096130
1477.582031	600.138672
1476.361328	579.556396
1475.140625	589.694397
1473.919922	573.215393
1472.699219	581.304077
1471.476562	581.204102
1470.255859	607.703857
1469.033203	570.775085
1467.810547	572.722290
1466.587891	570.578674
1465.365234	605.240906
1464.142578	588.781677
1462.919922	547.799744
1461.697266	576.316895
1460.472656	559.871094
1459.250000	606.763123
1458.025391	571.934082
1456.800781	565.708801
1455.576172	539.066406
1454.351562	573.680237
1453.126953	540.921997
1451.902344	591.850464
1450.677734	559.100342
1449.451172	607.967896
1448.226562	575.226257
1447.000000	550.653687
1445.775391	605.614685
1444.548828	568.812805
1443.322266	595.214050
1442.095703	544.160156
1440.869141	597.046692
1439.640625	586.757080
1438.414062	558.138000
1437.185547	568.225037
1435.958984	559.981934
1434.730469	508.986786
1433.501953	561.824585
1432.273438	614.644165
1431.044922	498.549225
1429.816406	579.845032
1428.587891	545.163818
1427.359375	547.103699
1426.128906	565.310852
1424.900391	494.053406
1423.669922	561.050354
1422.439453	548.758972
1421.208984	573.049438
1419.978516	581.077637
1418.748047	513.941589
1417.517578	505.728821
1416.287109	562.500916
1415.054688	538.039856
1413.824219	542.007019
1412.591797	552.061768
1411.359375	576.317993
1410.126953	543.755554
1408.894531	570.033447
1407.662109	598.330444
1406.429688	533.334839
1405.197266	581.903748
1403.962891	608.156799
1402.730469	591.837158
1401.496094	597.814575
1400.261719	587.580688
1399.029297	553.040894
1397.794922	548.894592
1396.560547	550.824951
1395.324219	591.224731
1394.089844	568.854370
1392.855469	554.587891
1391.619141	603.060852
1390.384766	538.209717
1389.148438	552.277771
1387.912109	562.295715
1386.675781	586.466187
1385.439453	596.474670
1384.203125	559.982910
1382.966797	602.332520
1381.728516	505.225250
1380.492188	509.179138
1379.253906	553.535706
1378.015625	581.718079
1376.779297	535.169006
1375.541016	537.095703
1374.302734	585.454346
1373.062500	587.371704
1371.824219	561.034790
1370.585938	546.813599
1369.345703	514.440491
1368.107422	550.658813
1366.867188	584.847900
1365.626953	532.321228
1364.386719	574.565735
1363.146484	584.544800
1361.906250	590.489746
1360.666016	548.073242
1359.425781	578.197937
1358.183594	527.741089
1356.943359	493.413055
1355.701172	557.762451
1354.458984	515.388123
1353.216797	541.466553
1351.974609	539.360413
1350.732422	511.096527
1349.490234	573.375305
1348.246094	539.080750
1347.003906	543.009888
1345.759766	585.142822
1344.517578	542.822144
1343.273438	524.637329
1342.029297	560.722229
1340.785156	508.380646
1339.541016	534.410522
1338.296875	564.448853
1337.050781	506.108582
1335.806641	536.141357
1334.560547	530.025574
1333.316406	554.021851
1332.070312	503.751556
1330.824219	537.777161
1329.578125	537.684082
1328.332031	525.555481
1327.085938	551.537231
1325.837891	535.399841
1324.591797	507.238678
1323.345703	537.219116
1322.097656	539.130371
1320.849609	500.963837
1319.601562	538.943787
1318.353516	570.901123
1317.105469	518.729126
1315.857422	526.649231
1314.609375	564.598389
1313.359375	532.472290
1312.111328	534.381531
1310.861328	522.282532
1309.611328	512.188416
1308.361328	538.104797
1307.111328	520.011292
1305.861328	507.923035
1304.611328	535.825989
1303.361328	517.742188
1302.109375	505.660583
1300.859375	531.551086
1299.607422	507.483429
1298.355469	513.388428
1297.103516	511.302216
1295.851562	499.232086
1294.599609	535.084106
1293.347656	525.010193
1292.095703	479.013794
1290.841797	468.953094
1289.589844	540.699036
1288.335938	524.646484
1287.082031	514.583069
1285.830078	484.581482
1284.576172	514.404724
1283.322266	548.204651
1282.066406	516.219604
1280.812500	514.137390
1279.558594	526.002869
1278.302734	494.038269
1277.046875	537.771057
1275.792969	517.763794
1274.537109	489.799316
1273.281250	533.510010
1272.025391	533.417542
1270.767578	499.494720
1269.511719	495.428772
1268.255859	471.470917
1266.998047	533.047668
1265.740234	509.091583
1264.484375	516.956482
1263.226562	489.035553
1261.968750	496.901154
1260.710938	496.814972
1259.453125	494.741882
1258.193359	490.682953
1256.935547	502.515167
1255.675781	486.540955
1254.417969	496.384247
1253.158203	530.046387
1251.898438	488.272644
1250.638672	500.094940
1249.378906	527.786438
1248.119141	476.115631
1246.857422	525.619812
1245.597656	529.494812
1244.335938	483.798950
1243.076172	499.574493
1241.814453	499.487793
1240.552734	511.291626
1239.291016	481.481781
1238.029297	517.057312
1236.767578	487.256775
1235.503906	516.877808
1234.242188	495.007751
1232.978516	488.982758
1231.714844	486.918518
1230.453125	506.623962
1229.189453	443.218994
1227.925781	488.643219
1226.662109	490.536346
1225.396484	528.026062
1224.132812	492.343262
1222.869141	514.004089
1221.603516	498.102051
1220.337891	521.730530
1219.072266	513.736267
1217.808594	493.891388
1216.542969	487.879944
1215.275391	497.669586
1214.009766	487.710419
1212.744141	481.703125
1211.476562	511.227173
1210.210938	479.562225
1208.943359	501.183716
1207.675781	501.096619
1206.408203	485.229706
1205.140625	471.340424
1203.873047	485.061066
1202.605469	484.976746
1201.335938	532.199036
1200.068359	472.983582
1198.798828	490.635162
1197.531250	506.310516
1196.261719	498.343536
1194.992188	496.287506
1193.722656	498.170258
1192.453125	486.271393
1191.181641	470.439880
1189.912109	492.006348
1188.640625	446.664093
1187.371094	503.639313
1186.099609	462.244720
1184.828125	507.397430
1183.556641	466.016571
1182.285156	471.833435
1181.013672	477.648254
1179.742188	493.287476
1178.468750	493.201660
1177.197266	475.434418
1175.923828	457.673340
1174.650391	465.449371
1173.376953	435.914703
1172.103516	471.177124
1170.830078	457.354858
1169.556641	514.189392
1168.283203	482.704468
1167.007812	480.658600
1165.734375	435.459747
1164.458984	504.025543
1163.183594	500.016113
1161.908203	501.889587
1160.632812	470.439575
1159.357422	487.996094
1158.082031	464.397339
1156.806641	470.193909
1155.529297	440.730042
1154.253906	466.113281
1152.976562	452.325287
1151.699219	483.570953
1150.421875	454.125183
1149.144531	473.617065
1147.867188	465.707550
1146.589844	461.713623
1145.312500	485.106049
1144.033203	471.331421
1142.753906	457.561584
1141.476562	443.796539
1140.197266	437.855072
1138.917969	437.778809
1137.638672	506.093536
1136.359375	482.561096
1135.078125	455.130127
1133.798828	443.332764
1132.519531	439.350189
1131.238281	482.224823
1129.957031	460.668915
1128.675781	444.975464
1127.394531	462.459656
1126.113281	460.428070
1124.832031	458.397186
1123.550781	481.720703
1122.267578	489.436523
1120.986328	456.207886
1119.703125	465.874664
1118.419922	428.763855
1117.136719	477.403748
1115.853516	434.459076
1114.570312	486.976807
1113.287109	459.625916
1112.003906	457.598541
1110.718750	438.049866
1109.435547	494.423370
1108.150391	439.843262
1106.865234	476.738068
1105.580078	443.580902
1104.294922	496.023651
1103.009766	423.977631
1101.724609	431.681702
1100.437500	451.048096
1099.152344	472.351562
1097.865234	458.664703
1096.580078	425.551025
1095.292969	421.591125
1094.005859	427.344971
1092.718750	487.476685
1091.431641	425.254028
1090.142578	452.360229
1088.855469	434.811188
1087.566406	428.912933
1086.279297	442.421173
1084.990234	411.302246
1083.701172	413.170197
1082.412109	459.644318
1081.123047	459.564087
1079.833984	502.136353
1078.542969	441.957886
1077.253906	467.075653
1075.962891	432.114868
1074.673828	428.164612
1073.382812	422.278656
1072.091797	393.154114
1070.800781	433.749451
1069.509766	453.034119
1068.218750	445.212158
1066.925781	429.651428
1065.634766	433.446442
1064.341797	443.044159
1063.048828	421.688873
1061.757812	446.757385
1060.464844	450.546661
1059.171875	456.267944
1057.876953	407.863190
1056.583984	411.657227
1055.291016	407.720642
1053.996094	417.309296
1052.703125	397.919861
1051.408203	453.858368
1050.113281	420.952454
1048.818359	434.393341
1047.523438	416.944702
1046.228516	432.311493
1044.931641	409.080414
1043.636719	432.160339
1042.339844	439.800568
1041.042969	412.723083
1039.748047	416.507446
1038.451172	453.065430
1037.154297	412.506592
1035.857422	395.089050
1034.558594	464.389313
1033.261719	421.923096
1031.962891	414.144287
1030.666016	423.701416
1029.367188	415.924988
1028.068359	437.029877
1026.769531	440.803223
1025.470703	409.933014
1024.171875	452.194366
1022.873047	400.170074
1021.572266	405.870728
1020.273438	407.722931
1018.972656	403.805786
1017.671875	401.812561
1016.371094	403.664459
1015.070312	415.125031
1013.769531	424.660065
1012.468750	413.058502
1011.167969	412.986206
1009.865234	451.324493
1008.562500	474.287811
1007.261719	445.406891
1005.958984	447.248413
1004.656250	414.543976
1003.353516	422.146759
1002.050781	464.280121
1000.746094	402.817139
999.443359	450.692627
998.138672	435.273651
996.835938	417.942871
995.531250	410.202332
994.226562	431.211945
992.921875	429.220245
991.617188	404.239288
990.312500	442.478271
989.005859	438.570435
987.701172	409.771301
986.394531	430.758820
985.089844	474.708740
983.783203	419.125000
982.476562	355.906799
981.169922	405.586090
979.863281	428.468689
978.554688	393.969116
977.248047	458.912659
975.939453	397.654602
974.632812	382.293152
973.324219	372.670471
972.015625	406.999451
970.707031	422.211792
969.398438	424.047882
968.089844	391.507080
966.779297	387.619507
965.470703	374.187683
964.160156	419.932922
962.851562	354.971924
961.541016	373.990845
960.230469	396.818634
958.919922	387.211792
957.609375	417.657654
956.296875	417.584381
954.986328	411.791809
953.675781	371.691254
952.363281	428.799286
951.050781	379.182587
949.738281	403.882446
948.425781	420.954498
947.113281	401.836243
945.800781	380.820587
944.488281	409.310303
943.173828	414.948761
941.861328	412.972809
940.546875	395.775421
939.232422	401.413239
937.917969	418.461670
936.603516	412.682922
935.289062	378.384705
933.974609	408.735809
932.658203	391.557190
931.343750	374.384552
930.027344	353.417755
928.710938	364.754272
927.394531	360.891357
926.078125	377.919830
924.761719	377.853455
923.445312	375.888641
922.128906	394.803558
920.810547	385.245392
919.492188	341.536896
918.175781	387.007141
916.857422	385.042389
915.539062	364.114044
914.220703	365.946167
912.902344	390.526733
911.582031	379.085541
910.263672	390.389496
908.943359	411.163269
907.625000	376.991272
906.304688	369.348633
904.984375	390.115112
903.664062	378.685944
902.343750	363.474609
901.023438	365.303467
899.701172	348.207367
898.380859	387.880219
897.058594	361.327301
895.736328	361.263763
894.416016	357.418030
893.093750	361.136719
891.769531	379.977570
890.447266	368.570099
889.125000	345.828033
887.800781	374.108795
886.478516	372.153870
885.154297	358.867004
883.830078	366.357635
882.505859	375.733734
881.181641	371.892059
879.857422	366.164307
878.533203	366.099884
877.208984	377.356140
875.882812	401.813568
874.556641	371.565002
873.232422	369.613831
871.906250	354.465149
870.580078	401.530792
869.253906	343.031647
867.925781	376.891510
866.599609	397.550537
865.273438	359.804657
863.945312	331.489380
862.617188	361.561127
861.289062	369.028656
859.960938	336.961731
858.632812	367.016571
857.304688	382.006378
855.976562	344.309631
854.646484	338.605591
853.318359	351.711609
851.988281	374.215424
850.658203	353.467896
849.328125	372.203796
847.998047	357.102325
846.667969	383.347595
845.337891	356.976532
844.007812	362.549103
842.675781	345.581787
841.343750	368.054871
840.013672	411.172516
838.681641	367.925140
837.349609	379.121338
836.017578	379.054535
834.683594	341.464172
833.351562	352.659088
832.019531	390.107239
830.685547	360.035492
829.351562	373.096008
828.017578	376.779297
826.685547	324.235443
825.349609	367.277130
824.015625	352.224121
822.681641	348.415588
821.345703	359.591400
820.011719	372.635773
818.675781	353.847931
817.339844	336.938599
816.003906	389.282623
814.667969	387.342712
813.332031	366.694611
811.996094	334.830383
810.660156	353.473633
809.322266	372.110291
807.984375	334.653198
806.648438	328.986450
805.310547	342.010773
803.972656	347.556152
802.634766	362.440857
801.294922	381.056122
799.957031	339.901825
798.617188	313.700165
797.279297	373.386658
795.939453	341.588501
794.599609	337.795654
793.259766	320.942505
791.919922	335.810760
790.580078	333.886200
789.240234	361.801605
787.898438	374.790131
786.558594	335.573669
785.216797	311.282837
783.875000	324.273346
782.533203	305.582947
781.191406	331.610748
779.849609	337.140137
778.507812	333.355927
777.164062	333.297058
775.822266	344.408173
774.478516	344.347321
773.134766	351.730530
771.791016	327.479553
770.447266	338.583801
769.103516	349.684113
767.759766	351.481995
766.414062	319.810699
765.070312	375.525269
763.724609	321.556396
762.378906	304.774139
761.033203	323.300781
759.687500	334.389984
758.341797	313.899536
756.996094	319.415253
755.650391	334.212677
754.302734	330.440765
752.955078	319.245850
751.609375	302.487640
750.261719	317.277557
748.914062	367.309052
747.566406	319.020111
746.216797	307.837067
744.869141	318.907288
743.521484	315.143311
742.171875	311.380676
740.822266	333.563141
739.472656	296.448120
738.125000	318.625336
736.773438	313.012543
735.423828	338.882629
734.074219	303.644348
732.722656	307.292938
731.373047	325.746918
730.021484	316.436737
728.669922	314.530579
727.318359	338.522980
725.966797	344.011658
724.615234	321.760376
723.263672	286.574890
721.910156	299.463959
720.558594	325.285980
719.205078	317.836853
717.851562	349.189117
716.498047	332.502197
715.144531	301.045898
713.791016	324.998138
712.437500	308.324310
711.082031	315.653412
709.728516	313.751892
708.373047	324.767975
707.017578	346.849792
705.664062	322.808319
704.308594	315.373962
702.951172	326.381897
701.595703	328.167725
700.240234	350.229340
698.882812	335.423401
697.525391	316.937378
696.169922	346.358551
694.812500	303.931030
693.455078	329.660675
692.097656	327.760925
690.738281	324.020782
689.380859	355.255249
688.023438	331.267426
686.664062	316.488312
685.304688	318.271942
683.945312	355.003448
682.585938	342.067017
681.226562	314.425232
679.867188	318.046295
678.505859	321.666107
677.146484	321.609070
675.785156	319.714600
674.425781	310.472321
673.064453	332.458740
671.703125	347.091461
670.341797	306.634888
668.978516	310.252136
667.617188	310.197083
666.255859	321.153015
664.892578	289.903870
663.529297	321.039093
662.166016	302.640289
660.802734	320.925171
659.439453	315.367645
658.076172	309.812042
656.712891	298.759796
655.347656	320.697449
653.984375	249.183502
652.619141	337.070770
651.253906	324.189880
649.888672	283.844696
648.523438	302.103638
647.158203	318.525452
645.791016	287.354126
644.425781	283.643188
643.058594	329.333618
641.693359	331.104462
640.326172	316.413818
638.958984	312.700317
637.591797	299.846466
636.222656	318.073273
634.855469	312.533722
633.488281	297.859344
632.119141	305.114594
630.750000	321.500763
629.382812	277.610443
628.013672	293.995667
626.642578	306.723572
625.273438	308.494476
623.904297	288.363708
622.533203	330.282013
621.164062	310.154510
619.792969	306.451172
618.421875	286.335022
617.050781	306.342255
615.679688	320.872925
614.308594	331.752808
612.937500	308.001404
611.564453	307.946655
610.193359	302.426392
608.820312	300.551086
607.447266	287.749268
606.074219	293.160736
604.701172	325.878510
603.328125	316.719421
601.955078	296.644165
600.580078	300.230560
599.207031	274.707611
597.832031	300.123779
596.457031	283.702942
595.082031	272.742767
593.707031	289.055878
592.332031	318.086670
590.955078	256.241394
589.580078	267.097748
588.203125	283.400238
586.828125	265.186371
585.451172	281.483368
584.074219	285.064667
582.697266	286.829315
581.320312	246.847122
579.941406	297.615601
578.564453	250.388077
577.185547	286.625153
575.806641	330.104401
574.429688	304.657501
573.050781	282.845886
571.671875	280.982727
570.291016	270.057892
568.912109	279.070557
567.531250	266.338074
566.152344	271.725159
564.771484	235.453201
563.390625	275.250092
562.009766	287.874817
560.628906	305.925629
559.248047	284.152496
557.867188	247.910553
556.484375	255.103363
555.103516	303.898804
553.720703	298.418854
552.337891	301.982239
550.955078	280.232971
549.572266	283.798309
548.189453	260.252686
546.804688	271.048248
545.421875	278.226593
544.037109	285.402374
542.652344	287.157532
541.269531	285.300659
539.884766	250.947601
538.498047	258.123108
537.113281	276.124420
535.728516	272.466370
534.341797	270.613708
532.957031	227.274979
531.570312	275.927551
530.183594	256.043945
528.796875	263.209503
527.410156	257.755127
526.023438	261.313477
524.634766	268.474213
523.248047	266.624817
521.859375	289.992828
520.470703	264.728821
519.083984	253.878265
517.695312	234.030396
516.304688	241.188293
514.916016	280.736267
513.527344	287.883270
512.136719	250.053955
510.748047	271.592865
509.357422	249.964706
507.966797	255.314056
506.576172	280.435791
505.185547	242.641510
503.792969	247.989258
502.402344	262.318604
501.009766	283.828369
499.619141	251.448593
498.226562	269.361115
496.833984	269.313019
495.441406	253.109024
494.048828	263.832489
492.654297	242.251877
491.261719	247.591034
489.867188	295.979889
488.474609	265.437561
487.080078	268.976501
485.685547	231.278473
484.291016	243.784912
482.896484	240.156921
481.500000	293.870880
480.105469	223.946930
478.708984	274.062073
477.314453	223.866913
475.917969	248.895523
474.521484	281.076355
473.125000	257.756439
471.728516	232.655197
470.330078	227.245605
468.933594	255.829239
467.535156	250.417419
466.136719	214.605133
464.740234	203.838425
463.341797	235.981247
461.941406	252.025803
460.542969	232.322662
459.144531	212.626572
457.744141	244.744797
456.345703	233.984192
454.945312	253.586349
453.544922	266.039490
452.144531	262.421570
450.744141	262.374603
449.343750	228.421387
447.941406	251.575409
446.541016	231.907471
445.138672	221.164474
443.736328	238.957550
442.333984	235.348892
440.931641	222.828400
439.529297	219.223907
438.126953	235.222580
436.722656	235.180481
435.320312	240.482437
433.916016	247.563522
432.511719	256.422791
431.107422	256.376862
429.703125	247.430588
428.298828	243.826782
426.894531	259.798065
425.488281	229.506516
424.083984	249.032242
422.677734	241.873718
421.271484	240.052231
419.865234	257.787689
418.458984	261.296600
417.052734	231.037231
415.646484	250.541641
414.238281	282.475067
412.830078	234.465607
411.423828	277.046082
410.015625	280.547668
408.607422	296.475098
407.199219	253.822418
405.789062	285.720886
404.380859	289.218384
402.970703	274.974335
401.562500	296.209564
400.152344	262.462036
398.742188	281.918793
397.332031	258.822449
395.921875	311.949188
394.511719	290.627838
393.099609	295.891144
391.689453	283.437683
390.277344	269.217529
388.865234	272.710938
387.453125	306.302185
386.041016	249.600357
384.628906	283.183655
383.216797	281.363281
381.802734	274.235779
380.390625	281.262360
378.976562	235.227570
377.562500	259.941742
376.148438	277.575043
374.734375	238.636353
373.320312	213.850510
371.904297	245.618896
370.490234	233.207748
369.074219	220.801041
367.658203	233.124054
366.242188	211.892929
364.826172	234.805847
363.410156	227.703140
361.994141	210.014038
360.578125	187.037735
359.160156	211.702835
357.742188	218.720322
356.326172	222.208160
354.908203	223.931503
353.490234	237.994690
352.070312	230.901520
350.652344	229.097778
349.234375	222.008728
347.814453	216.683884
346.394531	188.463516
344.974609	218.367081
343.554688	216.567154
342.134766	204.205505
340.714844	190.088211
339.294922	205.891907
337.873047	182.982147
336.453125	191.744904
335.031250	207.539749
333.609375	189.917511
332.187500	209.223358
330.765625	193.364975
329.341797	223.208542
327.919922	191.538254
326.496094	205.559143
325.074219	189.712799
323.650391	196.703827
322.226562	201.936371
320.802734	194.877457
319.378906	203.619110
317.953125	191.297348
316.529297	187.753540
315.103516	207.018066
313.679688	192.948242
312.253906	194.667297
310.828125	175.344406
309.402344	212.128571
307.974609	198.067902
306.548828	199.784775
305.121094	236.544678
303.695312	206.720367
302.267578	206.683182
300.839844	206.645996
299.412109	192.601440
297.984375	217.075272
296.556641	190.781830
295.126953	213.497208
293.699219	206.460129
292.269531	213.420364
290.839844	174.903229
289.410156	194.107651
287.980469	209.808319
286.550781	188.793503
285.119141	187.011734
283.689453	171.250946
282.257812	167.725815
280.828125	197.391724
279.396484	157.186325
277.964844	200.813034
276.531250	181.572128
275.099609	193.758423
273.667969	190.233017
272.234375	193.688629
270.802734	193.653748
269.369141	200.596115
267.935547	162.191971
266.501953	160.419067
265.066406	153.416687
263.632812	186.507126
262.199219	179.502548
260.763672	146.364044
259.328125	142.853439
257.892578	179.405518
256.457031	168.924255
255.021484	193.270233
253.585938	156.677353
252.150391	193.200562
250.712891	187.945038
249.275391	175.731735
247.839844	187.877289
246.402344	175.668365
244.964844	182.592606
243.525391	163.434372
242.087891	152.974808
240.650391	185.969910
239.210938	187.674088
237.771484	175.478378
236.332031	156.338669
234.892578	170.204727
233.453125	159.755203
232.013672	173.615631
230.574219	185.735214
229.132812	161.404282
227.693359	154.434296
226.251953	154.406433
224.810547	157.847748
223.369141	152.616425
221.927734	175.130417
220.484375	159.495941
219.042969	171.600525
217.599609	171.569550
216.156250	169.805878
214.714844	181.902023
213.271484	150.691605
211.826172	157.591492
210.382812	138.516953
208.939453	159.265747
207.494141	152.313629
206.050781	179.974518
204.605469	166.100311
203.160156	150.501221
201.714844	136.637344
200.269531	141.800491
198.822266	153.877609
197.376953	150.392517
195.929688	164.192047
194.484375	162.434357
193.037109	148.583298
191.589844	145.101654
190.142578	139.894165
188.693359	172.677643
187.246094	138.117142
185.796875	143.270645
184.349609	138.067215
182.900391	155.297546
181.451172	139.742523
180.001953	155.241409
178.552734	118.996895
177.101562	150.012436
175.652344	163.777069
174.201172	120.656021
172.750000	151.654434
171.300781	134.396667
169.849609	129.204193
168.396484	146.404938
166.945312	130.879562
165.494141	141.186615
164.041016	144.604019
162.589844	135.972046
161.136719	151.435135
159.683594	149.687195
158.230469	135.898254
156.775391	137.593582
155.322266	135.849075
153.869141	122.070122
152.414062	139.237885
150.958984	144.368713
149.503906	130.595673
148.048828	151.188675
146.593750	130.548401
145.138672	135.677063
143.681641	144.238098
142.226562	147.645615
140.769531	118.438400
139.312500	114.984581
137.855469	116.679642
136.398438	150.969833
134.941406	132.074692
133.484375	142.340439
132.025391	123.453682
130.566406	132.002945
129.109375	128.550995
127.650391	102.822174
126.191406	116.510689
124.730469	119.915741
123.271484	121.606789
121.812500	135.284439
120.351562	130.123474
118.890625	140.370941
117.429688	123.230202
115.968750	124.919090
114.507812	131.740097
113.046875	124.873810
111.585938	97.486534
110.123047	129.958481
108.660156	158.999313
107.199219	97.433533
105.736328	99.124916
104.273438	92.271980
102.808594	90.546822
101.345703	80.281677
99.880859	80.267120
