#Wave		#Intensity
2199.140625	1372.730225
2198.041016	1349.965210
2196.943359	1315.597046
2195.845703	1326.755005
2194.746094	1315.155640
2193.646484	1383.184204
2192.548828	1357.931641
2191.449219	1334.961670
2190.349609	1289.261108
2189.250000	1336.787231
2188.150391	1295.647705
2187.050781	1265.885376
2185.949219	1354.292725
2184.849609	1360.881226
2183.748047	1367.467529
2182.648438	1369.509155
2181.546875	1305.697510
2180.445312	1357.697510
2179.343750	1357.469604
2178.244141	1291.422241
2177.140625	1286.666992
2176.039062	1393.088013
2174.937500	1363.363770
2173.835938	1385.816040
2172.732422	1322.086914
2171.630859	1312.795532
2170.527344	1294.439331
2169.423828	1380.352417
2168.322266	1244.148071
2167.218750	1298.319092
2166.115234	1384.187988
2165.011719	1309.208374
2163.906250	1277.282959
2162.802734	1304.240112
2161.699219	1319.868530
2160.593750	1358.127075
2159.490234	1355.635864
2158.384766	1350.882568
2157.279297	1355.180420
2156.173828	1364.000854
2155.068359	1329.847046
2153.962891	1307.010986
2152.857422	1315.834961
2151.751953	1283.966797
2150.646484	1344.774536
2149.539062	1310.652344
2148.433594	1328.507080
2147.326172	1362.168701
2146.218750	1332.577881
2145.111328	1379.776733
2144.003906	1332.130005
2142.896484	1320.618774
2141.789062	1338.453613
2140.681641	1401.416504
2139.574219	1374.104980
2138.464844	1324.243164
2137.357422	1312.742676
2136.248047	1303.501221
2135.140625	1346.123535
2134.031250	1300.808594
2132.921875	1356.941284
2131.812500	1316.146973
2130.703125	1284.379517
2129.593750	1333.727783
2128.484375	1401.079712
2127.373047	1405.348511
2126.263672	1306.033813
2125.152344	1346.339478
2124.042969	1364.121216
2122.931641	1345.886597
2121.820312	1338.909546
2120.708984	1271.187622
2119.597656	1327.211548
2118.486328	1320.240967
2117.375000	1311.023926
2116.263672	1389.496582
2115.150391	1297.094849
2114.039062	1350.819580
2112.925781	1364.075806
2111.814453	1278.465454
2110.701172	1341.151978
2109.587891	1336.434082
2108.474609	1349.683594
2107.361328	1286.586670
2106.248047	1367.189331
2105.132812	1297.376709
2104.019531	1339.798584
2102.906250	1386.693726
2101.791016	1384.216919
2100.675781	1386.227051
2099.562500	1347.867676
2098.447266	1316.248291
2097.332031	1302.574951
2096.216797	1291.147827
2095.101562	1344.719238
2093.986328	1355.697021
2092.869141	1310.659912
2091.753906	1332.839966
2090.636719	1281.102661
2089.521484	1363.741577
2088.404297	1287.388184
2087.287109	1414.769287
2086.169922	1358.576538
2085.052734	1376.250122
2083.935547	1304.420654
2082.818359	1411.579468
2081.701172	1333.058228
2080.582031	1341.778931
2079.464844	1328.137329
2078.345703	1303.322632
2077.228516	1361.217529
2076.109375	1354.283936
2074.990234	1295.960938
2073.871094	1400.742554
2072.751953	1293.290771
2071.632812	1393.570801
2070.513672	1368.773926
2069.392578	1352.915649
2068.273438	1321.437500
2067.152344	1339.069092
2066.033203	1300.909546
2064.912109	1392.162598
2063.791016	1349.545532
2062.669922	1396.154053
2061.548828	1308.952515
2060.427734	1326.568115
2059.306641	1359.781860
2058.185547	1388.526733
2057.062500	1323.669067
2055.941406	1359.094360
2054.818359	1345.499390
2053.695312	1400.954468
2052.574219	1342.818970
2051.451172	1327.006958
2050.328125	1264.451172
2049.205078	1297.624512
2048.082031	1335.237427
2046.957031	1368.387695
2045.833984	1281.395752
2044.708984	1345.683472
2043.585938	1352.128296
2042.460938	1325.218018
2041.335938	1347.226074
2040.212891	1362.558228
2039.087891	1313.435669
2037.962891	1339.878418
2036.835938	1344.095703
2035.710938	1397.179565
2034.585938	1376.955811
2033.458984	1330.092651
2032.333984	1338.748779
2031.207031	1331.863647
2030.080078	1338.297119
2028.955078	1426.832275
2027.828125	1351.157471
2026.701172	1322.092041
2025.574219	1288.600342
2024.445312	1385.954102
2023.318359	1332.508667
2022.191406	1407.654175
2021.062500	1394.118286
2019.933594	1358.426514
2018.806641	1340.472046
2017.677734	1340.245728
2016.548828	1315.655518
2015.419922	1437.232910
2014.291016	1288.641479
2013.162109	1399.113403
2012.031250	1330.261353
2010.902344	1327.823730
2009.773438	1389.554199
2008.642578	1382.682739
2007.511719	1340.422852
2006.382812	1287.119507
2005.251953	1373.137817
2004.121094	1302.160400
2002.990234	1242.259033
2001.857422	1319.401123
2000.726562	1350.113770
1999.595703	1318.955566
1998.462891	1340.822144
1997.332031	1318.510010
1996.199219	1346.993774
1995.066406	1331.311646
1993.933594	1344.331421
1992.802734	1328.654785
1991.667969	1361.530762
1990.535156	1317.174316
1989.402344	1303.716187
1988.269531	1321.140503
1987.134766	1290.044434
1986.001953	1380.224609
1984.867188	1313.857544
1983.732422	1379.758179
1982.599609	1333.247070
1981.464844	1304.378296
1980.330078	1277.722290
1979.193359	1343.584229
1978.058594	1312.526001
1976.923828	1279.276367
1975.787109	1270.254272
1974.652344	1320.665039
1973.515625	1302.835938
1972.380859	1265.209473
1971.244141	1300.195435
1970.107422	1361.565063
1968.970703	1345.940186
1967.833984	1251.160889
1966.695312	1310.308960
1965.558594	1325.474365
1964.421875	1327.447998
1963.283203	1336.013184
1962.146484	1366.545532
1961.007812	1256.482056
1959.869141	1330.942871
1958.730469	1326.326050
1957.591797	1271.213379
1956.453125	1317.096802
1955.314453	1338.821899
1954.175781	1292.512695
1953.035156	1318.622681
1951.896484	1305.237549
1950.755859	1309.403320
1949.615234	1276.287842
1948.476562	1330.885986
1947.335938	1313.123291
1946.195312	1321.668335
1945.054688	1301.721680
1943.914062	1312.456909
1942.771484	1336.332520
1941.630859	1344.867798
1940.488281	1331.500366
1939.347656	1344.412598
1938.205078	1298.211426
1937.062500	1260.781128
1935.919922	1247.436768
1934.777344	1255.978149
1933.634766	1306.083618
1932.492188	1255.552979
1931.349609	1299.080566
1930.207031	1305.420532
1929.062500	1294.268188
1927.919922	1287.491455
1926.775391	1352.839111
1925.630859	1247.722656
1924.486328	1245.326660
1923.341797	1286.619629
1922.197266	1255.825195
1921.052734	1321.122803
1919.908203	1279.416260
1918.761719	1340.321777
1917.617188	1261.522461
1916.470703	1250.397827
1915.326172	1320.004395
1914.179688	1267.425903
1913.033203	1310.832886
1911.886719	1297.526611
1910.740234	1251.519531
1909.593750	1262.207397
1908.447266	1301.226440
1907.298828	1242.166626
1906.152344	1331.289795
1905.003906	1302.743774
1903.857422	1300.344849
1902.708984	1276.169067
1901.560547	1332.565063
1900.412109	1275.736694
1899.263672	1314.700317
1898.115234	1275.304321
1896.964844	1253.328979
1895.816406	1250.941040
1894.667969	1326.860352
1893.517578	1313.586548
1892.367188	1319.887207
1891.218750	1297.922729
1890.068359	1282.486694
1888.917969	1280.095947
1887.767578	1297.262695
1886.617188	1292.697632
1885.464844	1379.367676
1884.314453	1300.946655
1883.164062	1263.810669
1882.011719	1278.794312
1880.859375	1285.089722
1879.708984	1278.360596
1878.556641	1278.143799
1877.404297	1338.677368
1876.251953	1266.863892
1875.099609	1299.182739
1873.945312	1275.108398
1872.792969	1309.583008
1871.640625	1313.696533
1870.486328	1272.292114
1869.332031	1319.752075
1868.179688	1310.861328
1867.025391	1362.631226
1865.871094	1336.408325
1864.716797	1353.506470
1863.562500	1247.179810
1862.406250	1320.573975
1861.251953	1261.908203
1860.095703	1257.365723
1858.941406	1291.772705
1857.785156	1336.985107
1856.630859	1252.399658
1855.474609	1288.952515
1854.318359	1260.623779
1853.162109	1303.648560
1852.003906	1258.034180
1850.847656	1257.820679
1849.691406	1305.145508
1848.533203	1309.244873
1847.376953	1324.143433
1846.218750	1263.445923
1845.060547	1323.693726
1843.904297	1306.197021
1842.746094	1338.354736
1841.585938	1262.588013
1840.427734	1299.057983
1839.269531	1307.467529
1838.111328	1302.931152
1836.951172	1302.709839
1835.792969	1341.304443
1834.632812	1287.174805
1833.472656	1289.111938
1832.312500	1306.135620
1831.152344	1316.688599
1829.992188	1262.599854
1828.832031	1311.932861
1827.671875	1303.094482
1826.509766	1287.798462
1825.349609	1296.192261
1824.187500	1308.888672
1823.027344	1340.952515
1821.865234	1312.748047
1820.703125	1351.255127
1819.541016	1288.637451
1818.378906	1301.324097
1817.216797	1320.458130
1816.052734	1384.740234
1814.890625	1315.709595
1813.728516	1302.589111
1812.564453	1310.964111
1811.400391	1325.782593
1810.238281	1314.815308
1809.074219	1318.887817
1807.910156	1320.811279
1806.746094	1279.788086
1805.580078	1352.566040
1804.416016	1311.551392
1803.251953	1296.304932
1802.085938	1377.626221
1800.921875	1220.772705
1799.755859	1267.757324
1798.589844	1273.975952
1797.423828	1318.791260
1796.257812	1271.398682
1795.091797	1322.629883
1793.925781	1330.978027
1792.757812	1298.607910
1791.591797	1272.676392
1790.423828	1281.028687
1789.257812	1244.399658
1788.089844	1302.007446
1786.921875	1318.914673
1785.753906	1297.282959
1784.585938	1337.729126
1783.417969	1350.341553
1782.250000	1386.485596
1781.082031	1330.628540
1779.912109	1285.484985
1778.744141	1293.820435
1777.574219	1297.876587
1776.404297	1250.623657
1775.234375	1391.482788
1774.066406	1314.310669
1772.894531	1335.454224
1771.724609	1230.545044
1770.554688	1309.367554
1769.384766	1272.838867
1768.212891	1304.651245
1767.042969	1257.461060
1765.871094	1349.032471
1764.699219	1278.374756
1763.527344	1263.220337
1762.355469	1324.875488
1761.183594	1247.858521
1760.011719	1294.566040
1758.839844	1328.463379
1757.667969	1315.445190
1756.494141	1289.641357
1755.322266	1346.966187
1754.148438	1267.892944
1752.974609	1291.113037
1751.800781	1246.159180
1750.626953	1280.024048
1749.453125	1307.489014
1748.279297	1254.038818
1747.105469	1313.429688
1745.929688	1321.719482
1744.755859	1317.238159
1743.580078	1295.737305
1742.404297	1250.843506
1741.230469	1239.995728
1740.054688	1303.581177
1738.878906	1252.330322
1737.703125	1277.626831
1736.525391	1251.903442
1735.349609	1209.187866
1734.173828	1259.975708
1732.996094	1359.607056
1731.818359	1268.042236
1730.642578	1265.702393
1729.464844	1301.582764
1728.287109	1288.623169
1727.109375	1303.261475
1725.931641	1328.505859
1724.751953	1302.817139
1723.574219	1264.408081
1722.396484	1279.040405
1721.216797	1259.735352
1720.037109	1270.122559
1718.859375	1310.186768
1717.679688	1280.287720
1716.500000	1301.262573
1715.320312	1252.304565
1714.140625	1281.751343
1712.958984	1317.542725
1711.779297	1270.724731
1710.597656	1266.272827
1709.417969	1310.516968
1708.236328	1284.891968
1707.054688	1360.864136
1705.875000	1324.658813
1704.693359	1263.077271
1703.509766	1256.515625
1702.328125	1290.140991
1701.146484	1279.347778
1699.964844	1264.329590
1698.781250	1221.835693
1697.597656	1339.985474
1696.416016	1301.719482
1695.232422	1276.143433
1694.048828	1284.375488
1692.865234	1271.483643
1691.681641	1262.819580
1690.496094	1279.494995
1689.312500	1266.610474
1688.128906	1264.283569
1686.943359	1287.281006
1685.757812	1276.511475
1684.574219	1257.307373
1683.388672	1314.041504
1682.203125	1299.055054
1681.017578	1227.144409
1679.832031	1243.799805
1678.644531	1275.204102
1677.458984	1228.623047
1676.273438	1278.982544
1675.085938	1331.431519
1673.898438	1268.013916
1672.710938	1240.419678
1671.525391	1278.108887
1670.337891	1263.153687
1669.148438	1309.245605
1667.960938	1378.471558
1666.773438	1317.214966
1665.585938	1306.470825
1664.396484	1329.385498
1663.207031	1257.653076
1662.019531	1270.054565
1660.830078	1311.885010
1659.640625	1309.558838
1658.451172	1273.606689
1657.261719	1267.085205
1656.070312	1313.089355
1654.880859	1266.651978
1653.691406	1237.032349
1652.500000	1274.618408
1651.308594	1263.902954
1650.119141	1246.893677
1648.927734	1265.569580
1647.736328	1319.912354
1646.544922	1252.548462
1645.351562	1332.047363
1644.160156	1237.438599
1642.968750	1268.681885
1641.775391	1247.498535
1640.583984	1282.921875
1639.390625	1265.935181
1638.197266	1255.240845
1637.003906	1263.406860
1635.810547	1227.578491
1634.617188	1317.431274
1633.423828	1327.676636
1632.230469	1306.511719
1631.035156	1304.194824
1629.841797	1312.343872
1628.646484	1226.318848
1627.451172	1230.293701
1626.255859	1290.750488
1625.060547	1257.063721
1623.865234	1267.304932
1622.669922	1250.360840
1621.474609	1214.607544
1620.277344	1212.309448
1619.082031	1262.257935
1617.884766	1255.773438
1616.689453	1255.558472
1615.492188	1221.923340
1614.294922	1307.338623
1613.097656	1275.794189
1611.900391	1275.575684
1610.703125	1273.270020
1609.503906	1208.355957
1608.306641	1256.141113
1607.107422	1245.494751
1605.910156	1213.992920
1604.710938	1270.094727
1603.511719	1242.769775
1602.312500	1265.489990
1601.113281	1263.188843
1599.914062	1271.308960
1598.714844	1218.997192
1597.513672	1289.624023
1596.314453	1206.081421
1595.113281	1228.784302
1593.912109	1253.561768
1592.712891	1188.805908
1591.511719	1255.213867
1590.310547	1190.479736
1589.109375	1213.165771
1587.906250	1233.763306
1586.705078	1281.396240
1585.503906	1254.138794
1584.300781	1170.744873
1583.097656	1232.917725
1581.896484	1249.336548
1580.693359	1249.122437
1579.490234	1365.279175
1578.287109	1227.917236
1577.083984	1252.634888
1575.878906	1310.575562
1574.675781	1289.584717
1573.470703	1212.541626
1572.267578	1247.624268
1571.062500	1216.276978
1569.857422	1201.541992
1568.652344	1226.234131
1567.447266	1250.917725
1566.242188	1288.037598
1565.037109	1225.603394
1563.832031	1252.347656
1562.625000	1308.105713
1561.419922	1291.299561
1560.212891	1280.716309
1559.005859	1224.552612
1557.798828	1218.127563
1556.591797	1271.772217
1555.384766	1240.489990
1554.177734	1254.771240
1552.970703	1248.345215
1551.761719	1229.502197
1550.554688	1229.291260
1549.345703	1307.708374
1548.138672	1295.071167
1546.929688	1230.726929
1545.720703	1222.243408
1544.511719	1199.288452
1543.302734	1215.621704
1542.091797	1258.820679
1540.882812	1256.537964
1539.673828	1264.587524
1538.462891	1254.040649
1537.251953	1266.218994
1536.042969	1185.456665
1534.832031	1249.265015
1533.621094	1149.952271
1532.410156	1232.322510
1531.197266	1194.961914
1529.986328	1233.962891
1528.775391	1190.425293
1527.562500	1208.785767
1526.351562	1229.202393
1525.138672	1235.177490
1523.925781	1251.458984
1522.712891	1249.182739
1521.500000	1242.785156
1520.287109	1197.237427
1519.074219	1209.393433
1517.859375	1219.485474
1516.646484	1190.441650
1515.431641	1206.711060
1514.216797	1150.913940
1513.003906	1214.530518
1511.789062	1226.670776
1510.574219	1294.368042
1509.359375	1277.685913
1508.142578	1219.867188
1506.927734	1236.111572
1505.712891	1215.335083
1504.496094	1200.733887
1503.279297	1206.694580
1502.064453	1200.321167
1500.847656	1191.894897
1499.630859	1208.127075
1498.414062	1218.190796
1497.195312	1265.221802
1495.978516	1225.986206
1494.761719	1250.414185
1493.542969	1202.983032
1492.326172	1192.513672
1491.107422	1257.977905
1489.888672	1265.968872
1488.669922	1245.236450
1487.451172	1208.102417
1486.232422	1191.488525
1485.013672	1263.047729
1483.792969	1176.728394
1482.574219	1209.321167
1481.353516	1219.359863
1480.132812	1202.758057
1478.914062	1247.621216
1477.693359	1222.827148
1476.472656	1253.335815
1475.251953	1183.502319
1474.029297	1226.290527
1472.808594	1221.985718
1471.587891	1238.147705
1470.365234	1227.703735
1469.142578	1184.530273
1467.921875	1223.190308
1466.699219	1259.791870
1465.476562	1210.500610
1464.253906	1214.381104
1463.029297	1310.242920
1461.806641	1207.831909
1460.583984	1223.970825
1459.359375	1174.728027
1458.134766	1211.293457
1456.912109	1162.069702
1455.687500	1192.498901
1454.462891	1204.543091
1453.238281	1171.675781
1452.013672	1238.823486
1450.787109	1210.042603
1449.562500	1262.879150
1448.335938	1193.307129
1447.111328	1168.627686
1445.884766	1237.757080
1444.658203	1206.962036
1443.431641	1223.061646
1442.205078	1118.908569
1440.978516	1187.998779
1439.751953	1248.915649
1438.525391	1193.700562
1437.296875	1207.751709
1436.070312	1201.434570
1434.841797	1235.839233
1433.613281	1274.303101
1432.384766	1247.625000
1431.156250	1176.187500
1429.927734	1271.609863
1428.699219	1181.884766
1427.468750	1226.426270
1426.240234	1236.382568
1425.009766	1203.638672
1423.781250	1217.660889
1422.550781	1276.392700
1421.320312	1198.952026
1420.089844	1221.094727
1418.859375	1245.261230
1417.628906	1220.673706
1416.396484	1226.555420
1415.166016	1224.313477
1413.935547	1218.012329
1412.703125	1286.811035
1411.470703	1231.797485
1410.238281	1176.802856
1409.005859	1217.172241
1407.773438	1214.934082
1406.541016	1239.059570
1405.308594	1186.128906
1404.074219	1230.523193
1402.841797	1212.069092
1401.607422	1193.621216
1400.373047	1240.017212
1399.140625	1199.286865
1397.906250	1162.621460
1396.671875	1200.898071
1395.435547	1245.235962
1394.201172	1212.630249
1392.966797	1200.276489
1391.730469	1181.855835
1390.496094	1230.212891
1389.259766	1207.747192
1388.023438	1231.810913
1386.787109	1215.419678
1385.550781	1306.198853
1384.314453	1261.497559
1383.078125	1204.683838
1381.839844	1228.727051
1380.603516	1268.926514
1379.365234	1210.120605
1378.128906	1236.170166
1376.890625	1201.624634
1375.652344	1169.110107
1374.414062	1199.190796
1373.175781	1299.908203
1371.935547	1279.502319
1370.697266	1206.640747
1369.458984	1222.571777
1368.218750	1194.121338
1366.978516	1250.383911
1365.740234	1205.807129
1364.500000	1203.582764
1363.259766	1207.406250
1362.019531	1213.243652
1360.777344	1253.334229
1359.537109	1202.751221
1358.294922	1160.242798
1357.054688	1264.768311
1355.812500	1208.168579
1354.570312	1246.211792
1353.330078	1215.802612
1352.087891	1243.768555
1350.843750	1249.590210
1349.601562	1193.041748
1348.359375	1168.697144
1347.115234	1144.360962
1345.873047	1230.628906
1344.628906	1129.891846
1343.384766	1224.172974
1342.142578	1171.706787
1340.898438	1189.589111
1339.654297	1133.128784
1338.408203	1223.326416
1337.164062	1156.837769
1335.919922	1194.790649
1334.673828	1200.607056
1333.427734	1198.392090
1332.183594	1194.170776
1330.937500	1206.004150
1329.691406	1169.681885
1328.445312	1219.628784
1327.197266	1205.378418
1325.951172	1207.175171
1324.705078	1166.867676
1323.457031	1148.624634
1322.208984	1192.518921
1320.962891	1192.312622
1319.714844	1190.102783
1318.466797	1249.992554
1317.218750	1165.656738
1315.970703	1185.479980
1314.720703	1165.253174
1313.472656	1145.033447
1312.222656	1142.833862
1310.974609	1162.647095
1309.724609	1196.458862
1308.474609	1150.242065
1307.224609	1148.042847
1305.974609	1199.837036
1304.724609	1189.632324
1303.472656	1161.439819
1302.222656	1131.258423
1300.972656	1197.007812
1299.720703	1162.834595
1298.468750	1184.607422
1297.216797	1168.423706
1295.964844	1140.263916
1294.712891	1144.059692
1293.460938	1165.820435
1292.208984	1205.536987
1290.955078	1169.407715
1289.703125	1197.138306
1288.449219	1157.033203
1287.195312	1188.745361
1285.943359	1104.783325
1284.689453	1222.228882
1283.433594	1214.043091
1282.179688	1152.044800
1280.925781	1173.766113
1279.671875	1181.532593
1278.416016	1107.619263
1277.160156	1218.966797
1275.906250	1117.192505
1274.650391	1194.651245
1273.394531	1152.638550
1272.138672	1158.409912
1270.880859	1130.348389
1269.625000	1144.080322
1268.369141	1269.211670
1267.111328	1213.299194
1265.855469	1117.632690
1264.597656	1185.041870
1263.339844	1212.668091
1262.082031	1144.878174
1260.824219	1188.400024
1259.566406	1174.285278
1258.306641	1237.652954
1257.048828	1148.056641
1255.789062	1127.998413
1254.531250	1171.485229
1253.271484	1250.690918
1252.011719	1107.562622
1250.751953	1176.829224
1249.492188	1206.387939
1248.232422	1194.275513
1246.970703	1198.035278
1245.710938	1174.029419
1244.449219	1193.653931
1243.189453	1193.446777
1241.927734	1226.935791
1240.666016	1165.287598
1239.404297	1192.825439
1238.142578	1154.977539
1236.880859	1194.392090
1235.617188	1176.361084
1234.355469	1132.595581
1233.091797	1197.729614
1231.830078	1181.686646
1230.566406	1203.250854
1229.302734	1147.638672
1228.039062	1129.634277
1226.775391	1139.328125
1225.511719	1192.526978
1224.246094	1188.365234
1222.982422	1154.550415
1221.716797	1193.882446
1220.453125	1203.556396
1219.187500	1159.876709
1217.921875	1120.163330
1216.656250	1230.582886
1215.390625	1171.121826
1214.125000	1210.409668
1212.857422	1154.921143
1211.591797	1178.406982
1210.324219	1233.461304
1209.058594	1164.185181
1207.791016	1179.765747
1206.523438	1146.027954
1205.255859	1218.798950
1203.988281	1141.686035
1202.718750	1236.118652
1201.451172	1174.798584
1200.183594	1156.857178
1198.914062	1203.947021
1197.644531	1182.066406
1196.375000	1168.072632
1195.105469	1213.166260
1193.835938	1163.728271
1192.566406	1159.588501
1191.296875	1226.312378
1190.027344	1172.961670
1188.755859	1160.951416
1187.484375	1192.227417
1186.214844	1166.448730
1184.943359	1156.412354
1183.671875	1179.807373
1182.400391	1177.636108
1181.128906	1142.049438
1179.855469	1202.775635
1178.583984	1180.951660
1177.310547	1216.109619
1176.039062	1168.755005
1174.765625	1150.876099
1173.492188	1162.457520
1172.218750	1162.255249
1170.945312	1195.422729
1169.671875	1163.813354
1168.398438	1100.818970
1167.123047	1153.598755
1165.849609	1243.629761
1164.574219	1182.615601
1163.298828	1202.018433
1162.023438	1162.598511
1160.748047	1162.396118
1159.472656	1132.795898
1158.197266	1197.262695
1156.921875	1200.972534
1155.644531	1161.586792
1154.369141	1182.927979
1153.091797	1163.140503
1151.814453	1186.431641
1150.537109	1150.990601
1149.259766	1189.932617
1147.982422	1166.244019
1146.705078	1193.431152
1145.427734	1169.750000
1144.148438	1179.325073
1142.871094	1091.125610
1141.591797	1161.318481
1140.312500	1127.885498
1139.033203	1186.321045
1137.753906	1174.390015
1136.474609	1201.537476
1135.195312	1181.794312
1133.914062	1187.447510
1132.634766	1122.801514
1131.353516	1138.224731
1130.072266	1171.210571
1128.791016	1206.136719
1127.511719	1188.364380
1126.228516	1170.598267
1124.947266	1146.986328
1123.666016	1216.997803
1122.384766	1177.786133
1121.101562	1163.933350
1119.818359	1152.034668
1118.537109	1153.782715
1117.253906	1143.838501
1115.970703	1168.966553
1114.687500	1139.543701
1113.402344	1189.982544
1112.119141	1166.407837
1110.835938	1164.257568
1109.550781	1125.122925
1108.265625	1134.657837
1106.982422	1130.568115
1105.697266	1142.044312
1104.412109	1219.653931
1103.126953	1190.267822
1101.839844	1137.557617
1100.554688	1178.187378
1099.267578	1156.599243
1097.982422	1121.414062
1096.695312	1158.138794
1095.408203	1148.222534
1094.121094	1122.769531
1092.833984	1202.202515
1091.546875	1135.970459
1090.259766	1172.660522
1088.970703	1137.515137
1087.683594	1166.428711
1086.394531	1150.701294
1085.107422	1131.098999
1083.818359	1175.516968
1082.529297	1148.159302
1081.240234	1163.471802
1079.949219	1122.554199
1078.660156	1106.850586
1077.371094	1131.852661
1076.080078	1213.041138
1074.789062	1146.956787
1073.500000	1140.945190
1072.208984	1090.390381
1070.917969	1113.436890
1069.626953	1132.603149
1068.333984	1128.533813
1067.042969	1153.496826
1065.750000	1137.814819
1064.458984	1116.334106
1063.166016	1118.073486
1061.873047	1090.801514
1060.580078	1061.605225
1059.287109	1053.686279
1057.994141	1088.296753
1056.701172	1146.087280
1055.406250	1101.442871
1054.113281	1163.074951
1052.818359	1087.536011
1051.525391	1069.963867
1050.230469	1092.948853
1048.935547	1142.955200
1047.640625	1075.193848
1046.343750	1121.325684
1045.048828	1132.707520
1043.753906	1117.074951
1042.457031	1082.157959
1041.160156	1074.254150
1039.865234	1133.843750
1038.568359	1143.285400
1037.271484	1139.230103
1035.974609	1079.284790
1034.675781	1150.393433
1033.378906	1148.265503
1032.080078	1115.317871
1030.783203	1134.382202
1029.484375	1113.002075
1028.185547	1107.031494
1026.886719	1097.213135
1025.587891	1133.588501
1024.289062	1050.646973
1022.990234	1165.898560
1021.689453	1100.292603
1020.390625	1090.483765
1019.089844	1094.138672
1017.789062	1068.953735
1016.488281	1114.900391
1015.187500	1089.720459
1013.886719	1056.863037
1012.585938	1125.842407
1011.285156	1100.673706
1009.982422	1146.574463
1008.681641	1125.251221
1007.378906	1042.499023
1006.076172	1144.052734
1004.773438	1111.225708
1003.470703	1116.787720
1002.167969	1095.488159
1000.865234	1089.541748
999.560547	1083.597290
998.257812	1125.593262
996.953125	1115.810181
995.648438	1098.362915
994.343750	1107.753174
993.039062	1086.480957
991.734375	1172.504150
990.429688	1091.846802
989.125000	1080.164429
987.818359	1131.676147
986.513672	1097.016602
985.207031	1094.910156
983.900391	1100.459839
982.593750	1086.872314
981.287109	1144.077026
979.980469	1080.752930
978.673828	1099.688477
977.365234	1110.968750
976.058594	1089.743774
974.750000	1146.897705
973.443359	1104.651001
972.134766	1127.387329
970.826172	1067.964355
969.517578	1119.351318
968.207031	1096.237183
966.898438	1073.131104
965.589844	1109.216797
964.279297	1051.757812
962.968750	1118.370239
961.658203	1076.194824
960.349609	1110.346680
959.039062	1173.098633
957.726562	1052.742920
956.416016	1073.533081
955.105469	1117.193604
953.792969	1056.001221
952.482422	1082.497192
951.169922	1108.983765
949.857422	1192.615234
948.544922	1049.545776
947.232422	1047.457153
945.919922	1104.397339
944.605469	1136.567993
943.292969	1071.650757
941.978516	1096.203369
940.666016	1071.274536
939.351562	1130.062866
938.037109	1080.409058
936.722656	1080.219482
935.408203	1083.832764
934.091797	1057.026611
932.777344	1129.071167
931.460938	1085.162354
930.146484	1075.471191
928.830078	1042.985840
927.513672	1109.283691
926.197266	1090.097656
924.880859	1061.424316
923.564453	1078.323975
922.246094	1104.708252
920.929688	1072.251831
919.611328	1079.653198
918.294922	1045.315308
916.976562	1064.099609
915.658203	1084.773682
914.339844	1065.621826
913.021484	1095.767212
911.701172	1015.965393
910.382812	1055.584473
909.062500	1038.345825
907.744141	1123.414062
906.423828	1049.345703
905.103516	1054.842529
903.783203	1067.911377
902.462891	1043.113037
901.142578	1105.391846
899.820312	1069.240723
898.500000	1065.268433
897.177734	1014.002686
895.855469	1047.870728
894.535156	1038.230835
893.212891	1017.249451
891.890625	1113.484253
890.566406	1100.057495
889.244141	1048.839478
887.921875	1076.996948
886.597656	1039.024780
885.273438	1055.841309
883.951172	1034.882324
882.626953	1068.686768
881.302734	1068.498779
879.976562	1045.661133
878.652344	1081.332886
877.328125	1030.198730
876.001953	1046.995728
874.677734	1039.266846
873.351562	1031.540649
872.025391	1067.183350
870.699219	1074.536133
869.373047	1072.462158
868.046875	1053.428467
866.718750	1008.023315
865.392578	1054.941528
864.064453	1056.639282
862.738281	1094.116455
861.410156	984.719727
860.082031	992.076294
858.753906	1070.952637
857.425781	1046.300171
856.095703	1096.916504
854.767578	1070.386963
853.437500	1089.006836
852.109375	1043.682739
850.779297	1054.780029
849.449219	1045.194946
848.119141	1043.131348
846.789062	1016.638977
845.457031	1044.642700
844.126953	1082.029053
842.796875	1008.588989
841.464844	1029.067749
840.132812	1057.049316
838.800781	1026.827881
837.468750	1073.568604
836.136719	1028.342529
834.804688	1046.923340
833.472656	1007.345459
832.138672	1055.932129
830.806641	1055.745972
829.472656	1025.561646
828.138672	1049.750122
826.804688	1027.074341
825.470703	1075.614502
824.136719	1075.424805
822.802734	1037.770508
821.466797	1073.172729
820.132812	1065.493164
818.796875	1097.133301
817.460938	1008.960022
816.125000	1040.598999
814.789062	1105.909180
813.453125	1017.780884
812.117188	1053.142578
810.779297	1019.292053
809.443359	1032.201782
808.105469	1058.194092
806.767578	1035.576172
805.431641	1024.179810
804.093750	1029.604858
802.753906	1020.081787
801.416016	1014.297913
800.078125	1077.618042
798.738281	1006.470764
797.400391	976.421692
796.060547	1032.248413
794.720703	991.007446
793.380859	1043.079834
792.041016	1020.507935
790.701172	1018.462463
789.361328	1033.202515
788.019531	1051.666626
786.679688	1025.380371
785.337891	986.055359
783.996094	1067.882690
782.654297	1000.613831
781.312500	998.574097
779.970703	1018.887268
778.628906	1063.403809
777.285156	971.976746
775.943359	1033.240967
774.599609	986.524353
773.255859	1001.238342
771.912109	954.543762
770.568359	1092.043213
769.224609	1019.308289
767.880859	1006.110107
766.535156	1041.260742
765.191406	992.741089
763.845703	994.424377
762.500000	986.815002
761.156250	1027.518311
759.810547	990.181702
758.462891	997.436340
757.117188	943.404297
755.771484	972.945801
754.423828	961.635132
753.078125	931.767334
751.730469	992.843445
750.382812	994.523315
749.035156	951.679565
747.687500	990.462036
746.339844	953.197510
744.990234	1023.486328
743.642578	951.006531
742.292969	967.519714
740.945312	974.761230
739.595703	924.562378
738.246094	998.498901
736.896484	959.426575
735.546875	1007.404907
734.195312	1001.672119
732.845703	1003.346069
731.494141	992.063354
730.144531	969.681335
728.792969	997.262878
727.441406	1002.636047
726.089844	939.573730
724.738281	974.542725
723.384766	978.068054
722.033203	942.772034
720.679688	964.784119
719.328125	964.613342
717.974609	973.680481
716.621094	964.271790
715.267578	980.723511
713.914062	975.010010
712.558594	984.068787
711.205078	930.361816
709.849609	961.572754
708.496094	935.568176
707.140625	955.697205
705.785156	914.945679
704.429688	955.358704
703.074219	907.245605
701.718750	993.737305
700.361328	969.597839
699.005859	974.955078
697.648438	928.715149
696.291016	913.811646
694.935547	932.070129
693.578125	970.580811
692.218750	942.788086
690.861328	959.190491
689.503906	931.409546
688.144531	980.935364
686.787109	1017.563049
685.427734	965.869629
684.068359	960.180176
682.708984	890.124146
681.349609	950.645874
679.990234	935.769775
678.628906	966.851929
677.269531	988.734009
675.908203	959.159180
674.548828	958.989075
673.187500	958.819031
671.826172	938.447571
670.464844	907.066284
669.101562	884.875305
667.740234	936.112793
666.378906	948.793030
665.015625	913.762329
663.652344	920.938354
662.289062	902.432800
660.925781	959.123230
659.562500	957.119507
658.199219	962.449341
656.835938	962.278564
655.470703	965.772949
654.107422	901.472412
652.742188	930.623413
651.376953	913.973755
650.011719	965.087524
648.646484	895.339722
647.281250	950.099792
645.916016	938.949280
644.548828	893.032959
643.181641	916.659973
641.816406	982.353333
640.449219	947.427673
639.082031	927.143860
637.714844	954.404663
636.347656	877.457642
634.978516	974.170532
633.611328	926.485413
632.242188	887.952515
630.875000	993.745605
629.505859	951.561584
628.136719	980.609985
626.767578	936.617371
625.398438	952.879944
624.027344	947.235291
622.658203	921.519897
621.287109	950.547607
619.917969	890.181946
618.546875	937.443054
617.175781	953.687927
615.804688	926.170837
614.431641	895.017822
613.060547	944.066833
611.689453	907.455078
610.316406	847.171875
608.943359	901.667786
607.572266	912.434814
606.199219	883.138123
604.826172	944.880798
603.451172	897.386169
602.078125	891.766785
600.705078	900.706238
599.330078	853.244629
597.955078	898.566895
596.582031	882.039307
595.207031	905.520508
593.830078	919.903381
592.455078	879.751038
591.080078	914.124084
589.705078	939.399719
588.328125	895.631836
586.951172	891.839722
585.574219	898.945251
584.197266	916.942566
582.820312	878.655884
581.443359	909.355896
580.066406	889.231689
578.687500	872.743469
577.310547	907.056274
575.931641	836.157043
574.552734	892.225647
573.173828	855.803894
571.794922	873.779785
570.416016	897.186646
569.037109	878.905151
567.656250	846.135315
566.277344	893.084412
564.896484	871.190857
563.515625	860.170410
562.134766	861.827759
560.753906	861.674255
559.373047	886.859619
557.992188	814.317871
556.609375	859.404602
555.226562	846.588867
553.845703	833.777649
552.462891	858.945374
551.080078	838.904480
549.697266	905.638489
548.314453	891.018372
546.929688	818.578918
545.546875	827.466492
544.162109	814.674377
542.777344	847.038086
541.394531	850.498596
540.009766	807.017212
538.625000	828.534363
537.238281	862.677185
535.853516	786.736816
534.466797	846.132507
533.082031	900.095581
531.695312	872.882935
530.308594	863.711487
528.921875	856.346130
527.535156	850.785889
526.148438	870.458252
524.759766	868.501099
523.373047	834.116760
521.984375	819.558167
520.597656	817.611084
519.208984	819.265808
517.820312	792.115662
516.431641	845.972595
515.041016	835.023926
513.652344	834.874939
512.261719	841.921875
510.873047	848.966248
509.482422	827.234680
508.091797	823.491028
506.701172	781.997070
505.310547	781.857483
503.919922	841.020630
502.527344	830.090149
501.136719	820.959900
499.744141	826.201599
498.351562	829.645630
496.958984	806.156616
495.566406	816.783447
494.173828	818.432373
492.781250	848.792542
491.386719	837.875916
489.994141	834.138611
488.599609	787.357910
487.205078	785.424072
485.810547	851.620544
484.416016	790.521179
483.021484	820.848145
481.626953	813.533752
480.230469	784.722778
478.835938	843.694946
477.439453	820.261658
476.042969	827.277649
474.646484	777.000732
473.250000	816.241943
471.853516	846.520691
470.457031	819.528931
469.058594	749.609680
467.662109	788.827637
466.263672	774.379395
464.865234	804.638367
463.466797	818.796631
462.068359	798.988342
460.669922	804.206848
459.269531	730.803955
457.871094	777.121948
456.470703	744.831970
455.072266	808.989319
453.671875	798.131409
452.271484	753.358398
450.871094	758.578369
449.468750	792.349487
448.068359	781.502258
446.666016	800.985657
445.265625	783.006226
443.863281	800.699097
442.460938	793.423889
441.058594	768.324768
439.656250	784.228271
438.253906	780.523926
436.849609	767.912292
435.447266	758.867981
434.042969	730.235168
432.638672	765.719299
431.234375	758.460510
429.830078	744.083923
428.425781	724.373047
427.021484	766.950562
425.615234	768.592407
424.210938	772.012451
422.804688	741.639526
421.398438	773.514160
419.992188	798.265869
418.585938	807.010742
417.179688	790.871033
415.773438	740.975586
414.365234	794.140930
412.957031	804.656372
411.550781	772.544861
410.142578	791.938538
408.734375	786.470703
407.326172	812.954895
405.916016	823.457397
404.507812	810.889221
403.099609	817.840149
401.689453	819.467285
400.279297	812.226746
398.869141	806.761841
397.458984	772.934326
396.048828	813.562500
394.638672	740.758545
393.226562	823.901855
391.816406	767.065674
390.404297	786.411316
388.992188	763.248901
387.580078	741.865295
386.167969	748.813232
384.755859	771.687988
383.343750	764.471130
381.929688	725.409607
380.517578	716.434631
379.103516	774.671814
377.689453	716.177612
376.275391	754.945618
374.861328	744.203979
373.447266	712.257446
372.033203	772.210083
370.617188	745.570190
369.201172	757.801514
367.787109	740.004272
366.371094	727.510864
364.955078	734.442261
363.539062	730.780090
362.121094	741.238037
360.705078	758.750305
359.287109	721.565552
357.871094	696.741394
356.453125	712.488525
355.035156	710.597351
353.617188	703.417969
352.199219	733.256470
350.781250	703.165344
349.361328	724.183105
347.943359	729.338135
346.523438	702.786560
345.103516	760.775146
343.683594	720.141479
342.263672	700.647522
340.843750	693.481262
339.421875	663.440247
338.001953	712.586304
336.580078	724.772339
335.158203	717.606750
333.738281	687.582886
332.316406	694.492188
330.892578	675.030518
329.470703	667.878906
328.048828	704.661377
326.625000	716.833313
325.203125	681.571899
323.779297	730.626099
322.355469	684.838867
320.931641	667.158936
319.507812	696.880188
318.082031	659.898865
316.658203	666.799133
315.232422	715.802917
313.806641	661.296997
312.382812	666.439453
310.957031	682.100830
309.531250	694.250244
308.103516	659.068542
306.677734	695.753052
305.250000	627.291626
303.824219	667.472412
302.396484	653.339661
300.968750	611.191772
299.541016	677.617920
298.113281	665.241516
296.685547	621.363770
295.255859	640.502014
293.828125	685.878723
292.398438	628.025879
290.968750	661.145020
289.539062	640.041016
288.109375	641.674255
286.679688	645.054993
285.250000	608.234985
283.818359	637.832764
282.386719	628.982056
280.957031	635.856262
279.525391	628.755554
278.093750	674.044312
276.662109	659.955566
275.228516	591.758362
273.796875	610.849915
272.363281	633.424500
270.931641	614.119141
269.498047	629.707642
268.064453	638.314331
266.630859	606.812500
265.197266	611.933350
263.761719	658.886414
262.328125	646.568237
260.892578	632.512085
259.458984	613.234497
258.023438	613.124023
256.587891	585.149231
255.152344	612.903015
253.714844	579.715637
252.279297	614.422668
250.843750	654.337891
249.406250	647.260132
247.968750	690.634216
246.531250	594.847168
245.093750	638.215027
243.656250	608.542175
242.218750	598.002197
240.779297	587.465942
239.341797	613.426270
237.902344	566.404785
236.462891	604.519348
235.023438	567.937317
233.583984	604.301270
232.144531	564.260010
230.703125	579.781067
229.263672	569.263123
227.822266	598.659546
226.380859	582.937134
224.939453	617.524353
223.498047	579.258179
222.056641	567.015686
220.615234	594.652222
219.171875	622.278748
217.730469	575.373962
216.287109	573.537354
214.843750	592.490540
213.400391	554.277039
211.957031	580.153992
210.513672	578.317749
209.070312	628.417480
207.625000	538.299011
206.179688	550.315674
204.736328	536.374390
203.291016	567.416199
201.845703	577.691406
200.398438	560.294006
198.953125	508.323120
197.507812	579.107056
196.060547	559.990417
194.613281	558.161194
193.167969	554.604858
191.720703	530.320679
190.271484	561.312927
188.824219	547.397034
187.376953	545.571655
185.927734	524.758850
184.480469	555.729675
183.031250	555.629211
181.582031	590.033691
180.132812	581.302368
178.683594	527.734009
177.232422	544.881714
175.783203	489.615265
174.332031	546.408325
172.882812	556.649780
171.431641	530.703186
169.980469	535.775452
168.529297	535.678589
167.076172	521.804688
165.625000	513.101196
164.171875	535.387939
162.720703	485.376495
161.267578	535.194275
159.814453	528.215149
158.361328	536.720886
156.908203	514.264465
155.453125	505.573212
154.000000	520.955688
152.544922	517.423340
151.089844	467.487305
149.636719	517.236084
148.181641	503.397827
146.724609	523.919922
145.269531	504.933044
143.814453	496.255890
142.357422	511.617584
140.900391	499.509277
139.445312	523.445862
137.988281	495.896606
136.531250	500.953583
135.072266	476.848907
133.615234	473.332581
132.156250	459.529572
130.699219	456.017639
129.240234	442.222687
127.781250	440.428864
126.322266	462.623535
124.863281	440.269287
123.404297	471.019928
121.943359	462.372131
120.484375	464.000549
119.023438	503.289459
117.562500	458.697723
116.101562	475.727081
114.640625	479.062744
113.179688	446.473969
111.716797	473.758148
110.255859	448.022125
108.792969	403.488770
107.330078	393.159302
105.867188	379.415375
104.404297	343.462463
102.941406	312.647919
101.478516	309.174927
100.013672	331.320770
