#Wave		#Intensity
2199.041016	1270.268433
2197.943359	1211.080322
2196.843750	1245.018433
2195.746094	1203.846924
2194.646484	1276.455200
2193.548828	1217.092651
2192.449219	1169.122681
2191.349609	1196.216675
2190.250000	1173.278076
2189.150391	1166.260864
2188.050781	1200.160645
2186.951172	1261.320801
2185.849609	1217.936035
2184.750000	1283.616455
2183.650391	1165.282715
2182.548828	1171.900513
2181.447266	1194.411255
2180.347656	1146.533081
2179.246094	1189.470337
2178.144531	1200.618652
2177.042969	1177.724976
2175.939453	1177.527222
2174.837891	1186.403320
2173.736328	1170.327637
2172.632812	1172.398926
2171.531250	1122.321045
2170.427734	1144.802002
2169.324219	1169.541870
2168.222656	1221.467529
2167.119141	1189.541260
2166.015625	1144.033325
2164.912109	1180.081665
2163.806641	1173.089478
2162.703125	1150.249756
2161.599609	1240.612305
2160.494141	1199.660645
2159.390625	1203.985474
2158.285156	1235.461792
2157.179688	1162.858398
2156.074219	1178.496948
2154.968750	1189.607056
2153.863281	1207.497070
2152.757812	1200.511597
2151.652344	1191.268066
2150.544922	1195.588135
2149.439453	1166.010986
2148.332031	1192.927002
2147.226562	1185.949707
2146.119141	1151.871826
2145.011719	1176.518433
2143.904297	1210.187866
2142.796875	1169.350708
2141.689453	1205.267090
2140.582031	1184.754395
2139.474609	1180.042725
2138.365234	1204.659424
2137.257812	1179.645996
2136.148438	1195.233887
2135.041016	1154.446899
2133.931641	1244.428833
2132.822266	1174.344971
2131.712891	1144.850220
2130.603516	1198.735962
2129.494141	1110.671997
2128.382812	1103.727661
2127.273438	1177.862305
2126.164062	1206.937012
2125.052734	1136.941528
2123.941406	1204.280151
2122.832031	1186.072632
2121.720703	1167.871338
2120.609375	1163.175171
2119.498047	1162.979614
2118.386719	1194.271362
2117.275391	1205.314087
2116.162109	1223.098145
2115.050781	1225.140259
2113.937500	1179.982544
2112.826172	1200.008911
2111.712891	1197.560181
2110.599609	1150.183228
2109.486328	1152.235718
2108.373047	1161.024658
2107.259766	1140.621460
2106.146484	1147.164307
2105.033203	1142.482178
2103.919922	1193.906128
2102.804688	1202.680542
2101.691406	1191.260986
2100.576172	1179.845215
2099.460938	1175.161255
2098.345703	1168.236572
2097.230469	1174.765747
2096.115234	1223.881958
2095.000000	1185.576050
2093.884766	1183.135742
2092.769531	1122.445557
2091.652344	1202.897705
2090.537109	1126.546875
2089.419922	1180.099976
2088.302734	1150.795532
2087.187500	1148.363281
2086.070312	1110.121338
2084.953125	1172.592041
2083.835938	1172.394531
2082.716797	1174.434204
2081.599609	1196.602783
2080.482422	1138.258423
2079.363281	1102.292480
2078.246094	1164.701172
2077.126953	1211.442749
2076.007812	1159.839355
2074.888672	1168.581543
2073.769531	1139.342529
2072.650391	1150.318848
2071.531250	1138.958740
2070.412109	1181.191528
2069.292969	1143.040039
2068.171875	1183.025635
2067.052734	1171.667603
2065.931641	1191.552490
2064.810547	1128.883911
2063.689453	1110.848633
2062.568359	1139.654663
2061.447266	1139.462646
2060.326172	1166.024536
2059.205078	1176.973511
2058.083984	1156.716553
2056.960938	1140.922974
2055.839844	1109.538818
2054.716797	1162.814575
2053.595703	1089.119629
2052.472656	1155.741943
2051.349609	1166.679565
2050.226562	1190.970093
2049.103516	1175.189209
2047.980469	1206.146118
2046.855469	1143.643066
2045.732422	1127.878052
2044.607422	1167.724121
2043.484375	1156.407837
2042.359375	1142.871948
2041.234375	1200.480103
2040.111328	1149.154785
2038.986328	1146.738525
2037.861328	1082.107544
2036.734375	1126.357300
2035.609375	1183.919434
2034.484375	1148.185913
2033.357422	1136.889893
2032.232422	1127.817627
2031.105469	1129.847046
2029.978516	1147.411377
2028.853516	1136.122925
2027.726562	1180.303467
2026.599609	1124.648315
2025.470703	1139.983643
2024.343750	1115.398804
2023.216797	1144.033203
2022.087891	1143.840088
2020.960938	1112.617920
2019.832031	1141.238159
2018.705078	1125.536133
2017.576172	1185.157959
2016.447266	1138.445557
2015.318359	1151.540405
2014.189453	1135.847046
2013.060547	1135.655396
2011.929688	1113.329834
2010.800781	1148.550049
2009.669922	1095.252930
2008.541016	1187.982910
2007.410156	1183.358521
2006.279297	1114.601929
2005.148438	1127.680542
2004.017578	1145.176270
2002.886719	1102.985474
2001.755859	1135.949463
2000.625000	1179.950562
1999.494141	1120.100952
1998.361328	1155.254150
1997.228516	1130.765259
1996.097656	1115.117188
1994.964844	1137.006592
1993.832031	1136.814575
1992.699219	1114.552246
1991.566406	1120.983887
1990.433594	1120.794556
1989.300781	1076.486938
1988.166016	1149.087891
1987.033203	1071.712891
1985.898438	1097.989380
1984.765625	1102.212646
1983.630859	1104.230469
1982.496094	1112.858643
1981.361328	1112.670532
1980.226562	1143.323608
1979.091797	1145.333008
1977.957031	1096.691162
1976.820312	1111.918579
1975.685547	1122.737915
1974.548828	1113.743774
1973.414062	1032.129517
1972.277344	1106.766357
1971.140625	1117.578979
1970.003906	1099.793457
1968.867188	1108.404297
1967.730469	1101.620361
1966.593750	1134.411255
1965.457031	1090.257446
1964.318359	1118.643555
1963.181641	1116.257080
1962.042969	1105.083374
1960.904297	1100.503296
1959.767578	1089.335938
1958.628906	1128.677368
1957.490234	1084.576538
1956.351562	1071.222290
1955.210938	1086.404419
1954.072266	1101.581421
1952.933594	1068.484863
1951.792969	1066.110474
1950.654297	1122.955200
1949.513672	1122.765259
1948.373047	1102.842529
1947.232422	1058.812744
1946.091797	1063.017212
1944.951172	1102.282837
1943.810547	1047.320190
1942.669922	1128.197876
1941.527344	1112.674927
1940.386719	1055.548340
1939.244141	1105.729614
1938.101562	1053.001831
1936.960938	1068.145386
1935.818359	1078.906860
1934.675781	1111.545532
1933.533203	1093.855713
1932.388672	1038.986938
1931.246094	1108.794189
1930.103516	1088.927124
1928.958984	1020.969604
1927.816406	1130.089722
1926.671875	1105.858032
1925.527344	1059.783325
1924.382812	1000.615601
1923.238281	1033.211792
1922.093750	1054.876953
1920.949219	1089.636597
1919.804688	1050.153198
1918.658203	1108.913696
1917.513672	1089.083130
1916.367188	1149.999146
1915.222656	1027.624023
1914.076172	1062.352783
1912.929688	1020.732788
1911.783203	1059.812256
1910.636719	1024.747681
1909.490234	1042.013550
1908.343750	1059.273682
1907.195312	1144.083252
1906.048828	1041.484131
1904.900391	1050.021484
1903.753906	1093.405518
1902.605469	1071.442993
1901.457031	1066.906738
1900.308594	1003.593140
1899.160156	1038.249023
1898.011719	970.609192
1896.861328	1046.600708
1895.712891	1029.019165
1894.564453	1091.924072
1893.414062	1024.320801
1892.263672	1052.414551
1891.115234	1010.929321
1889.964844	1047.710327
1888.814453	1023.626404
1887.664062	1103.851562
1886.513672	1014.589111
1885.361328	1023.105835
1884.210938	1029.447876
1883.058594	1087.902832
1881.908203	1016.072205
1880.755859	1076.680298
1879.603516	1037.431274
1878.453125	1061.125244
1877.300781	1084.811035
1876.148438	1034.734253
1874.994141	1060.585327
1873.841797	1045.225830
1872.689453	1060.225586
1871.535156	1001.515625
1870.382812	992.676086
1869.228516	1068.354370
1868.074219	1024.839478
1866.919922	1013.834045
1865.765625	1030.989624
1864.611328	1030.814697
1863.457031	1041.465820
1862.302734	1060.772705
1861.148438	997.822876
1859.992188	1017.130493
1858.837891	997.484253
1857.681641	1042.745850
1856.525391	1077.176880
1855.369141	1025.090698
1854.212891	988.158142
1853.056641	1022.580872
1851.900391	1026.730347
1850.744141	1048.167847
1849.585938	1030.703369
1848.429688	982.998840
1847.271484	991.472229
1846.115234	1060.414429
1844.957031	1042.959717
1843.798828	1008.239075
1842.640625	1042.605469
1841.482422	1096.384399
1840.324219	1046.567139
1839.166016	1076.594482
1838.005859	992.283264
1836.847656	1050.347534
1835.687500	1041.543579
1834.527344	957.281189
1833.369141	1047.656738
1832.208984	1015.149231
1831.048828	1014.976807
1829.888672	1040.659302
1828.726562	1074.949829
1827.566406	1025.228760
1826.406250	1005.673340
1825.244141	988.277588
1824.083984	1063.455688
1822.921875	1024.532227
1821.759766	1043.726196
1820.597656	1034.942261
1819.435547	1060.581787
1818.273438	1051.797852
1817.111328	1051.619141
1815.949219	1049.290161
1814.785156	1049.111816
1813.623047	997.346619
1812.458984	1014.369751
1811.296875	1005.602478
1810.132812	1087.069092
1808.968750	1067.552368
1807.804688	1060.927979
1806.640625	1047.864014
1805.476562	1045.538940
1804.310547	1026.042358
1803.146484	1107.422241
1801.980469	1068.609497
1800.816406	1055.555176
1799.650391	1018.909424
1798.484375	1059.485596
1797.318359	990.686462
1796.152344	1059.125244
1794.986328	1020.360046
1793.820312	1011.613525
1792.654297	1026.441650
1791.486328	1066.974854
1790.320312	1030.376709
1789.152344	1006.641724
1787.984375	1017.177612
1786.816406	1046.979370
1785.648438	982.580322
1784.480469	1027.360107
1783.312500	1110.644165
1782.144531	1018.452148
1780.976562	1016.139587
1779.806641	1060.883057
1778.638672	1013.655212
1777.468750	970.719727
1776.298828	1077.443726
1775.128906	1002.450623
1773.958984	983.046509
1772.789062	1012.792847
1771.619141	1040.392700
1770.449219	1006.040161
1769.279297	1029.360474
1768.107422	975.804321
1766.937500	1026.875122
1765.765625	1084.332153
1764.593750	964.635193
1763.421875	1028.484497
1762.250000	1015.508850
1761.078125	1049.464844
1759.906250	1021.561096
1758.734375	989.402100
1757.560547	1023.345093
1756.388672	1040.223633
1755.214844	1022.996521
1754.042969	1048.392822
1752.869141	1016.256531
1751.695312	971.350159
1750.521484	1043.597534
1749.347656	1017.866638
1748.173828	1015.564148
1746.998047	1013.262451
1745.824219	991.806396
1744.648438	966.101685
1743.474609	991.468384
1742.298828	1050.862549
1741.123047	1014.526306
1739.947266	995.214661
1738.771484	1018.432861
1737.595703	1041.643066
1736.419922	1043.591064
1735.244141	1024.287476
1734.066406	998.616272
1732.890625	1026.062622
1731.712891	989.779846
1730.535156	985.363831
1729.357422	972.456238
1728.181641	1031.731812
1727.001953	1057.026367
1725.824219	976.203308
1724.646484	1037.569580
1723.468750	1020.421021
1722.289062	1003.278198
1721.111328	1060.366943
1719.931641	1053.824951
1718.751953	1028.205078
1717.572266	998.354675
1716.392578	1019.377258
1715.212891	1017.084473
1714.033203	987.251099
1712.853516	997.673645
1711.671875	1027.153320
1710.492188	1043.917847
1709.310547	1026.802856
1708.130859	1039.328125
1706.949219	1030.685303
1705.767578	1007.232971
1704.585938	1030.333496
1703.404297	1083.040527
1702.222656	1063.821167
1701.039062	1080.556396
1699.857422	1040.201538
1698.673828	1023.113037
1697.492188	1020.824951
1696.308594	1067.139893
1695.125000	982.446289
1693.941406	1085.787476
1692.757812	1079.265991
1691.574219	1057.964600
1690.390625	1051.449951
1689.205078	1049.159546
1688.021484	1023.652832
1686.835938	1050.911499
1685.652344	1014.863708
1684.466797	1052.662231
1683.281250	1003.971191
1682.095703	1022.779175
1680.910156	1045.797607
1679.724609	1024.537964
1678.539062	1041.224854
1677.351562	1062.120850
1676.166016	1030.334106
1674.978516	1061.758057
1673.791016	1036.301025
1672.605469	1052.971558
1671.417969	1008.574402
1670.230469	1039.980469
1669.042969	1001.915222
1667.853516	1081.715210
1666.666016	1117.300781
1665.478516	1072.930420
1664.289062	1053.816284
1663.099609	1053.636108
1661.912109	1072.380493
1660.722656	1093.220703
1659.533203	1078.319824
1658.343750	1044.509521
1657.154297	1092.660156
1655.962891	1056.757935
1654.773438	1088.085571
1653.583984	1106.801270
1652.392578	1117.111206
1651.201172	1108.522339
1650.011719	1175.504517
1648.820312	1089.254517
1647.628906	1112.150635
1646.437500	1153.921265
1645.244141	1126.454102
1644.052734	1136.748047
1642.861328	1119.777954
1641.667969	1178.291382
1640.476562	1155.031128
1639.283203	1167.408936
1638.089844	1196.546631
1636.896484	1146.057861
1635.703125	1198.232056
1634.509766	1221.066040
1633.316406	1231.327637
1632.121094	1231.117065
1630.927734	1197.412354
1629.732422	1226.509766
1628.539062	1213.743896
1627.343750	1303.505249
1626.148438	1273.994995
1624.953125	1259.135864
1623.757812	1290.288818
1622.562500	1264.977539
1621.367188	1310.752319
1620.169922	1249.913452
1618.974609	1341.650635
1617.777344	1316.347778
1616.580078	1314.033325
1615.384766	1317.985840
1614.187500	1317.760254
1612.990234	1361.382812
1611.791016	1317.309082
1610.593750	1317.083496
1609.396484	1323.118774
1608.197266	1393.835938
1607.000000	1422.804443
1605.800781	1387.101074
1604.601562	1345.153320
1603.404297	1334.497192
1602.205078	1382.218872
1601.005859	1375.728882
1599.804688	1358.820557
1598.605469	1410.680908
1597.406250	1375.022095
1596.205078	1391.450562
1595.005859	1387.046875
1593.804688	1407.632202
1592.603516	1428.210449
1591.402344	1394.660400
1590.201172	1373.609253
1589.000000	1392.101685
1587.798828	1427.231812
1586.595703	1358.342163
1585.394531	1295.715332
1584.191406	1341.241089
1582.990234	1338.932129
1581.787109	1374.041016
1580.583984	1373.805542
1579.380859	1342.399780
1578.177734	1350.480347
1576.974609	1346.094238
1575.771484	1345.863403
1574.566406	1385.088013
1573.363281	1308.029663
1572.158203	1370.081909
1570.953125	1357.393799
1569.750000	1301.131470
1568.544922	1282.234985
1567.339844	1327.653198
1566.134766	1306.684570
1564.927734	1308.534180
1563.722656	1308.309814
1562.515625	1293.574097
1561.310547	1266.407349
1560.103516	1291.058105
1558.898438	1255.613159
1557.691406	1290.615234
1556.484375	1242.754883
1555.277344	1211.478027
1554.068359	1252.681152
1552.861328	1225.553711
1551.654297	1188.086426
1550.445312	1258.244873
1549.238281	1233.199463
1548.029297	1251.606812
1546.820312	1178.997437
1545.611328	1209.816040
1544.402344	1164.118896
1543.193359	1244.545776
1541.984375	1215.394165
1540.773438	1225.518799
1539.564453	1171.584961
1538.353516	1163.120117
1537.142578	1173.248291
1535.933594	1152.394653
1534.722656	1154.261719
1533.511719	1160.257080
1532.300781	1137.352051
1531.087891	1182.560425
1529.876953	1114.263550
1528.666016	1173.901978
1527.453125	1153.072998
1526.242188	1142.562988
1525.029297	1132.056641
1523.816406	1113.307007
1522.603516	1154.342285
1521.390625	1139.717285
1520.177734	1112.733398
1518.962891	1135.205200
1517.750000	1093.812012
1516.537109	1097.743164
1515.322266	1116.087402
1514.107422	1113.836792
1512.892578	1099.235962
1511.679688	1117.570312
1510.464844	1086.511475
1509.248047	1067.807861
1508.033203	1075.852661
1506.818359	1061.270630
1505.601562	1069.313721
1504.386719	1079.410034
1503.169922	1044.278198
1501.953125	1052.319946
1500.736328	1025.424561
1499.519531	1039.630615
1498.302734	1068.211426
1497.085938	1057.758179
1495.869141	1065.790527
1494.650391	1051.234985
1493.433594	1032.578613
1492.214844	1046.768433
1490.998047	1048.640625
1489.779297	1112.065552
1488.560547	1050.331421
1487.341797	1017.333557
1486.123047	1095.086060
1484.902344	1090.796997
1483.683594	1029.108765
1482.462891	1059.676758
1481.244141	1075.888916
1480.023438	1044.969482
1478.802734	1046.838257
1477.582031	1042.561646
1476.361328	1054.669800
1475.140625	1062.678467
1473.919922	1009.268494
1472.699219	1047.984863
1471.476562	1033.479126
1470.255859	1018.978210
1469.033203	1029.031860
1467.810547	992.036865
1466.587891	1085.939941
1465.365234	1030.545288
1464.142578	1097.832520
1462.919922	1026.102539
1461.697266	1040.231567
1460.472656	1003.272644
1459.250000	1041.916382
1458.025391	1031.523926
1456.800781	1045.642212
1455.576172	1008.707642
1454.351562	1028.949585
1453.126953	1012.442688
1451.902344	1061.249146
1450.677734	1056.985352
1449.451172	1118.008057
1448.226562	1077.019287
1447.000000	1015.650085
1445.775391	1090.922119
1444.548828	1088.695435
1443.322266	1076.277466
1442.095703	1053.673462
1440.869141	1071.831299
1439.640625	1087.945435
1438.414062	1099.979980
1437.185547	957.225037
1435.958984	1089.419434
1434.730469	1072.944092
1433.501953	1042.225342
1432.273438	1048.151367
1431.044922	1041.866089
1429.816406	1047.790161
1428.587891	1033.370239
1427.359375	998.616760
1426.128906	1077.750854
1424.900391	1089.763916
1423.669922	1122.100708
1422.439453	1018.252808
1421.208984	1068.879517
1419.978516	1078.853882
1418.748047	1052.259888
1417.517578	1090.668091
1416.287109	1051.896973
1415.054688	1076.079712
1413.824219	1067.774170
1412.591797	1112.242065
1411.359375	1081.610840
1410.126953	1095.626953
1408.894531	1054.866211
1407.662109	1097.277222
1406.429688	1115.338989
1405.197266	1090.816040
1403.962891	1116.981323
1402.730469	1070.171387
1401.496094	1132.807861
1400.261719	996.861084
1399.029297	1053.411255
1397.794922	1122.094482
1396.560547	1075.323730
1395.324219	1081.212402
1394.089844	1103.294067
1392.855469	1044.406372
1391.619141	1068.510498
1390.384766	1129.026367
1389.148438	1080.279663
1387.912109	1118.523438
1386.675781	1087.995850
1385.439453	1037.259399
1384.203125	1061.339478
1382.966797	1125.836304
1381.728516	1073.098511
1380.492188	1056.748779
1379.253906	1139.394653
1378.015625	1098.800781
1376.779297	1132.942627
1375.541016	1084.287231
1374.302734	1086.118774
1373.062500	1063.728149
1371.824219	1079.689331
1370.585938	1107.751465
1369.345703	1111.594971
1368.107422	1083.164062
1366.867188	1054.742920
1365.626953	1034.396973
1364.386719	1086.634766
1363.146484	1048.149292
1361.906250	1082.228760
1360.666016	1088.086670
1359.425781	1079.840088
1358.183594	1109.867676
1356.943359	1101.620117
1355.701172	1039.008667
1354.458984	1107.279175
1353.216797	1072.868652
1351.974609	1078.720825
1350.732422	1050.363770
1349.490234	1042.134766
1348.246094	1027.874146
1347.003906	1041.774536
1345.759766	1091.864380
1344.517578	1003.215698
1343.273438	1059.325195
1342.029297	1041.054199
1340.785156	1044.893066
1339.541016	1012.567322
1338.296875	976.235352
1337.050781	990.125122
1335.806641	1062.242554
1334.560547	1007.851746
1333.316406	1013.699341
1332.070312	1039.614746
1330.824219	1043.448120
1329.578125	1009.160828
1328.332031	1006.980347
1327.085938	1010.817322
1325.837891	976.553284
1324.591797	962.350037
1323.345703	1012.297241
1322.097656	966.025452
1320.849609	989.904541
1319.601562	1009.768311
1318.353516	935.476624
1317.105469	983.382263
1315.857422	999.231812
1314.609375	973.031250
1313.359375	926.822021
1312.111328	984.703003
1310.861328	1008.545532
1309.611328	984.362122
1308.361328	990.192871
1307.111328	946.020508
1305.861328	993.849426
1304.611328	969.685120
1303.361328	951.526184
1302.109375	997.330566
1300.859375	985.167969
1299.607422	1000.981079
1298.355469	972.841064
1297.103516	934.724365
1295.851562	874.654602
1294.599609	942.386902
1293.347656	1010.095703
1292.095703	981.978271
1290.841797	965.843811
1289.589844	945.724487
1288.335938	903.668701
1287.082031	933.429749
1285.830078	891.390625
1284.576172	945.069214
1283.322266	883.107849
1282.066406	962.679810
1280.812500	944.577942
1279.558594	898.588257
1278.302734	950.226868
1277.046875	962.012634
1275.792969	920.026489
1274.537109	880.045898
1273.281250	943.596069
1272.025391	961.345764
1270.767578	925.358765
1269.511719	955.043396
1268.255859	909.123291
1266.998047	871.174927
1265.740234	882.955688
1264.484375	942.451416
1263.226562	922.408508
1261.968750	918.273315
1260.710938	908.177795
1259.453125	921.928650
1258.193359	882.037354
1256.935547	967.292053
1255.675781	859.886658
1254.417969	917.318115
1253.158203	915.173767
1251.898438	928.908936
1250.638672	916.840759
1249.378906	884.935120
1248.119141	922.474060
1246.857422	952.066040
1245.597656	932.069580
1244.335938	840.699829
1243.076172	862.360779
1241.814453	919.691833
1240.552734	907.641724
1239.291016	903.521362
1238.029297	905.345581
1236.767578	883.400513
1235.503906	910.972412
1234.242188	873.193665
1232.978516	928.473328
1231.714844	862.993774
1230.453125	833.158936
1229.189453	884.459351
1227.925781	904.088867
1226.662109	884.152222
1225.396484	800.938416
1224.132812	899.663391
1222.869141	856.014526
1221.603516	822.263672
1220.337891	889.313477
1219.072266	843.713074
1217.808594	873.200012
1216.542969	865.147400
1215.275391	876.846375
1214.009766	841.152405
1212.744141	866.670776
1211.476562	832.964722
1210.210938	870.316650
1208.943359	836.621643
1207.675781	864.095703
1206.408203	885.642822
1205.140625	846.046204
1203.873047	861.673523
1202.605469	863.495178
1201.335938	865.316223
1200.068359	845.458130
1198.798828	849.252014
1197.531250	803.792542
1196.261719	827.289673
1194.992188	842.901001
1193.722656	830.940125
1192.453125	858.357605
1191.181641	881.828735
1189.912109	856.091064
1188.640625	798.879395
1187.371094	887.270813
1186.099609	792.700562
1184.828125	831.895813
1183.556641	855.346863
1182.285156	796.218933
1181.013672	864.877502
1179.742188	805.768372
1178.468750	793.838562
1177.197266	819.240295
1175.923828	887.846985
1174.650391	777.712891
1173.376953	793.286194
1172.103516	777.442261
1170.830078	814.601990
1169.556641	824.273010
1168.283203	867.298279
1167.007812	827.909912
1165.734375	812.073547
1164.458984	860.961914
1163.183594	809.830017
1161.908203	809.689087
1160.632812	836.990417
1159.357422	766.291077
1158.082031	795.549866
1156.806641	799.329651
1155.529297	763.932068
1154.253906	789.259033
1152.976562	779.330994
1151.699219	800.730835
1150.421875	824.080627
1149.144531	786.752319
1147.867188	767.047729
1146.589844	780.609009
1145.312500	784.385193
1144.033203	754.912598
1142.753906	735.227173
1141.476562	795.705688
1140.197266	795.567017
1138.917969	816.926514
1137.638672	750.347168
1136.359375	799.058655
1135.078125	736.412292
1133.798828	781.203125
1132.519531	767.398315
1131.238281	782.883179
1129.957031	751.514954
1128.675781	731.867493
1127.394531	776.619995
1126.113281	760.876892
1124.832031	752.941772
1123.550781	782.064819
1122.267578	752.679260
1120.986328	731.102356
1119.703125	789.452881
1118.419922	758.132446
1117.136719	781.383301
1115.853516	744.230347
1114.570312	765.527527
1113.287109	751.761047
1112.003906	769.154968
1110.718750	757.339539
1109.435547	763.047058
1108.150391	733.720825
1106.865234	788.077209
1105.580078	750.974670
1104.294922	731.391724
1103.009766	727.374451
1101.724609	746.692688
1100.437500	736.841492
1099.152344	726.993774
1097.865234	738.527893
1096.580078	685.933838
1095.292969	777.126465
1094.005859	751.738647
1092.718750	755.491760
1091.431641	741.767273
1090.142578	759.110962
1088.855469	706.568176
1087.566406	696.740906
1086.279297	749.011292
1084.990234	717.838806
1083.701172	709.954468
1082.412109	709.830505
1081.123047	715.523804
1079.833984	680.501343
1078.542969	688.136169
1077.253906	715.149048
1075.962891	742.152466
1074.673828	685.838318
1073.382812	703.152100
1072.091797	679.788635
1070.800781	702.906433
1069.509766	751.184753
1068.218750	720.082275
1066.925781	712.214966
1065.634766	685.000183
1064.341797	679.076416
1063.048828	677.023376
1061.757812	690.443237
1060.464844	688.388855
1059.171875	668.935181
1057.876953	709.411316
1056.583984	682.230042
1055.291016	705.298706
1053.996094	658.807739
1052.703125	726.300354
1051.408203	695.272400
1050.113281	646.876465
1048.818359	685.376160
1047.523438	648.580627
1046.228516	696.716309
1044.931641	690.805603
1043.636719	663.674805
1042.339844	700.208801
1041.042969	665.371338
1039.748047	717.318420
1038.451172	690.201782
1037.154297	692.008728
1035.857422	655.269653
1034.558594	660.935852
1033.261719	695.498840
1031.962891	683.819641
1030.666016	677.922302
1029.367188	714.389648
1028.068359	675.759827
1026.769531	679.491455
1025.470703	660.126831
1024.171875	692.723267
1022.873047	648.352478
1021.572266	696.328003
1020.273438	692.359680
1018.972656	663.395203
1017.671875	661.356567
1016.371094	668.929688
1015.070312	676.500061
1013.769531	703.283203
1012.468750	649.366394
1011.167969	670.382263
1009.865234	616.490051
1008.562500	656.706177
1007.261719	652.751465
1005.958984	673.751892
1004.656250	656.361267
1003.353516	623.625916
1002.050781	640.783325
1000.746094	656.016479
999.443359	690.422729
998.138672	650.034180
996.835938	671.009216
995.531250	657.473816
994.226562	640.110168
992.921875	678.321289
991.617188	660.960022
990.312500	637.858337
989.005859	632.001099
987.701172	706.568298
986.394531	666.240295
985.089844	673.780151
983.783203	644.954895
982.476562	675.457520
981.169922	638.989441
979.863281	614.010925
978.554688	648.327820
977.248047	621.444214
975.939453	701.630920
974.632812	609.757568
973.324219	663.162354
972.015625	672.600037
970.707031	655.287964
969.398438	658.993347
968.089844	649.328796
966.779297	660.671692
965.470703	647.191956
964.160156	624.173035
962.851562	614.521301
961.541016	637.310913
960.230469	662.000305
958.919922	638.994812
957.609375	661.768066
956.296875	661.651978
954.986328	648.190796
953.675781	665.232056
952.363281	615.565186
951.050781	609.740845
949.738281	640.115540
948.425781	634.288940
947.113281	632.273132
945.800781	658.819641
944.488281	654.896484
943.173828	599.581909
941.861328	629.926270
940.546875	610.788025
939.232422	622.095398
937.917969	641.007202
936.603516	623.778748
935.289062	610.359253
933.974609	595.043335
932.658203	632.954102
931.343750	651.847229
930.027344	602.330261
928.710938	592.725708
927.394531	598.319885
926.078125	581.122925
924.761719	626.591125
923.445312	626.481079
922.128906	651.046265
920.810547	624.363220
919.492188	614.766418
918.175781	614.658386
916.857422	608.860107
915.539062	654.267395
914.220703	599.165710
912.902344	614.226501
911.582031	610.327759
910.263672	632.961609
908.943359	638.534668
907.625000	564.539734
906.304688	609.898804
904.984375	594.641479
903.664062	598.323792
902.343750	586.860046
901.023438	582.971313
899.701172	569.621826
898.380859	603.579468
897.058594	641.308655
895.736328	609.041504
894.416016	627.845459
893.093750	623.953491
891.769531	555.788086
890.447266	589.712158
889.125000	636.852722
887.800781	614.067444
886.478516	621.515869
885.154297	610.073914
883.830078	617.520325
882.505859	617.411682
881.181641	626.741943
879.857422	600.207458
878.533203	590.666321
877.208984	603.769836
875.882812	586.685547
874.556641	601.671204
873.232422	586.479065
871.906250	586.375854
870.580078	595.698242
869.253906	578.630310
867.925781	627.524353
866.599609	604.804382
865.273438	557.603027
863.945312	629.076477
862.617188	591.303101
861.289062	553.542969
859.960938	559.092896
858.632812	634.279907
857.304688	600.295776
855.976562	588.901184
854.646484	598.203186
853.318359	552.958374
851.988281	616.797302
850.658203	571.565063
849.328125	567.704773
847.998047	603.315002
846.667969	569.383911
845.337891	586.193054
844.007812	591.725220
842.675781	595.377319
841.343750	606.539368
840.013672	576.392517
838.681641	595.062622
837.349609	583.696716
836.017578	549.816711
834.683594	596.624268
833.351562	570.257263
832.019531	588.911865
830.685547	596.308777
829.351562	598.078552
828.017578	603.596680
826.685547	554.761230
825.349609	605.257751
824.015625	584.542175
822.681641	603.171082
821.345703	588.081787
820.011719	526.184204
818.675781	567.280029
817.339844	593.386353
816.003906	580.180786
814.667969	555.752625
813.332031	568.750793
811.996094	583.614990
810.660156	596.603638
809.322266	547.880981
807.984375	572.088745
806.648438	557.033875
805.310547	629.823120
803.972656	575.523132
802.634766	575.421570
801.294922	571.584167
799.957031	588.291626
798.617188	638.603882
797.279297	589.950928
795.939453	567.447510
794.599609	569.213623
793.259766	576.576965
791.919922	559.684631
790.580078	555.855225
789.240234	587.461365
787.898438	606.003906
786.558594	557.425171
785.216797	615.109741
783.875000	574.001099
782.533203	538.496826
781.191406	538.401672
779.849609	504.778870
778.507812	556.834778
777.164062	573.494385
775.822266	567.808044
774.478516	524.897034
773.134766	545.275391
771.791016	563.785828
770.447266	572.987976
769.103516	544.986389
767.759766	587.663025
766.414062	550.371887
765.070312	565.146912
763.724609	537.166443
762.378906	570.522339
761.033203	540.692688
759.687500	588.897888
758.341797	566.505066
756.996094	532.977722
755.650391	581.158691
754.302734	525.363708
752.955078	536.407288
751.609375	553.014221
750.261719	556.627258
748.914062	524.992249
747.566406	567.559082
746.216797	541.496521
744.869141	574.774780
743.521484	533.889893
742.171875	505.993591
740.822266	504.050964
739.472656	559.545837
738.125000	513.135010
736.773438	514.896362
735.423828	549.989807
734.074219	529.526123
732.722656	479.451050
731.373047	510.830383
730.021484	547.750122
728.669922	527.301270
727.318359	525.358093
725.966797	540.061279
724.615234	495.584961
723.263672	510.288208
721.910156	565.654175
720.558594	502.714691
719.205078	495.234161
717.851562	508.079407
716.498047	535.697937
715.144531	535.603088
713.791016	504.116425
712.437500	513.258423
711.082031	557.469788
709.728516	518.613464
708.373047	527.747986
707.017578	494.445465
705.664062	498.047119
704.308594	512.713257
702.951172	507.090515
701.595703	538.342590
700.240234	512.440796
698.882812	475.490326
697.525391	490.147339
696.169922	499.272156
694.812500	528.655762
693.455078	504.620270
692.097656	487.958679
690.738281	522.851685
689.380859	515.396240
688.023438	495.060760
686.664062	517.053589
685.304688	548.237244
683.945312	515.030884
682.585938	505.744263
681.226562	513.009583
679.867188	523.949097
678.505859	534.884766
677.146484	529.276611
675.785156	542.044861
674.425781	499.695099
673.064453	499.606476
671.703125	523.391907
670.341797	493.920868
668.978516	539.728577
667.617188	521.277954
666.255859	521.185486
664.892578	539.441345
663.529297	500.820984
662.166016	519.073975
660.802734	496.975555
659.439453	524.390381
658.076172	505.965240
656.712891	472.883575
655.347656	522.278687
653.984375	469.051300
652.619141	468.968048
651.253906	500.021698
649.888672	532.895569
648.523438	499.844177
647.158203	512.569702
645.791016	508.818146
644.425781	497.748077
643.058594	508.637482
641.693359	503.059265
640.326172	519.430786
638.958984	517.509888
637.591797	508.276306
636.222656	486.249939
634.855469	517.234192
633.488281	506.178162
632.119141	515.223450
630.750000	491.384705
629.382812	520.519531
628.013672	498.514374
626.642578	471.039764
625.273438	511.115112
623.904297	487.298187
622.533203	465.314453
621.164062	483.476135
619.792969	494.334900
618.421875	492.423248
617.050781	481.394958
615.679688	503.187103
614.308594	473.932556
612.937500	479.315796
611.564453	495.630127
610.193359	484.610931
608.820312	508.204559
607.447266	457.120667
606.074219	489.815125
604.701172	467.881439
603.328125	471.438690
601.955078	447.696106
600.580078	484.008087
599.207031	487.560516
597.832031	523.852417
596.457031	485.568481
595.082031	494.573517
593.707031	490.849640
592.332031	507.121063
590.955078	521.569336
589.580078	485.136719
588.203125	459.617065
586.828125	466.800659
585.451172	461.269531
584.074219	484.791504
582.697266	470.182251
581.320312	486.434021
579.941406	468.200165
578.564453	455.415985
577.185547	457.148987
575.806641	496.970367
574.429688	435.225006
573.050781	489.540955
571.671875	478.577057
570.291016	427.742706
568.912109	491.091675
567.531250	452.955933
566.152344	449.252258
564.771484	478.151123
563.390625	461.768250
562.009766	454.443878
560.628906	497.807983
559.248047	425.323792
557.867188	434.295837
556.484375	459.547882
555.103516	452.230347
553.720703	453.958374
552.337891	414.095398
550.955078	468.260254
549.572266	448.292847
548.189453	459.056824
546.804688	449.940094
545.421875	446.246552
544.037109	466.036804
542.652344	433.445343
541.269531	446.007996
539.884766	445.928467
538.498047	420.578186
537.113281	413.284271
535.728516	454.712097
534.341797	463.651489
532.957031	443.727325
531.570312	461.682709
530.183594	441.765961
528.796875	420.053528
527.410156	454.225800
526.023438	439.727509
524.634766	445.054596
523.248047	432.364563
521.859375	448.498230
520.470703	423.205933
519.083984	439.335449
517.695312	457.259399
516.304688	449.978149
514.916016	413.906036
513.527344	455.215393
512.136719	433.546783
510.748047	435.268036
509.357422	451.375122
507.966797	462.082489
506.576172	440.428009
505.185547	381.037018
503.792969	438.473755
502.402344	443.785614
501.009766	398.796814
499.619141	443.627167
498.226562	443.547943
496.833984	434.491638
495.441406	448.774872
494.048828	448.694733
492.654297	448.614594
491.261719	407.269287
489.867188	453.835815
488.474609	434.026276
487.080078	448.294159
485.685547	441.042664
484.291016	433.793732
482.896484	448.053955
481.500000	433.638733
480.105469	419.228668
478.708984	426.318787
477.314453	435.197266
475.917969	469.141205
474.521484	443.993225
473.125000	456.443695
471.728516	375.827637
470.330078	429.440521
468.933594	411.473602
467.535156	427.498291
466.136719	425.633514
464.740234	379.067932
463.341797	396.877533
461.941406	405.743652
460.542969	421.755005
459.144531	398.451477
457.744141	462.692719
456.345703	410.811951
454.945312	403.595184
453.544922	423.163513
452.144531	415.947083
450.744141	401.593811
449.343750	478.257263
447.941406	419.292358
446.541016	413.865631
445.138672	420.925934
443.736328	429.766937
442.333984	406.511749
440.931641	443.874176
439.529297	408.148560
438.126953	386.691650
436.722656	418.692505
435.320312	427.524323
433.916016	406.075409
432.511719	386.414886
431.107422	388.126099
429.703125	391.616760
428.298828	414.683502
426.894531	391.476562
425.488281	439.442719
424.083984	421.575989
422.677734	419.722015
421.271484	433.872192
419.865234	401.793243
418.458984	407.053864
417.052734	389.208862
415.646484	405.131165
414.238281	403.282043
412.830078	373.013458
411.423828	390.705994
410.015625	379.982300
408.607422	385.240112
407.199219	390.496033
405.789062	406.398041
404.380859	390.356079
402.970703	377.867950
401.562500	377.800232
400.152344	370.638947
398.742188	398.941711
397.332031	411.279480
395.921875	386.391632
394.511719	419.992645
393.099609	386.253082
391.689453	416.299103
390.277344	410.910950
388.865234	378.961975
387.453125	396.599335
386.041016	387.677155
384.628906	382.297943
383.216797	366.303131
381.802734	414.007538
380.390625	362.633850
378.976562	410.321777
377.562500	376.650269
376.148438	385.422668
374.734375	371.212097
373.320312	392.353821
371.904297	411.720886
370.490234	395.746490
369.074219	395.675476
367.658203	365.580902
366.242188	346.091797
364.826172	344.264221
363.410156	383.035522
361.994141	400.614990
360.578125	361.723938
359.160156	393.414429
357.742188	359.830200
356.326172	356.238495
354.908203	372.043701
353.490234	329.666718
352.070312	375.435303
350.652344	361.269562
349.234375	373.538513
347.814453	378.756378
346.394531	361.074951
344.974609	361.010101
343.554688	376.791626
342.134766	350.318054
340.714844	360.815582
339.294922	381.867889
337.873047	323.737640
336.453125	328.956848
335.031250	383.420898
333.609375	348.182098
332.187500	323.505005
330.765625	356.846283
329.341797	356.782135
327.919922	365.504181
326.496094	339.084747
325.074219	321.457794
323.650391	338.962860
322.226562	326.610138
320.802734	342.352295
319.378906	366.865448
317.953125	343.984222
316.529297	324.620605
315.103516	363.158813
313.679688	373.617950
312.253906	336.721832
310.828125	338.414703
309.402344	354.131989
307.974609	317.259216
306.548828	331.222137
305.121094	336.419098
303.695312	318.839905
302.267578	317.030975
300.839844	355.501160
299.412109	336.177063
297.984375	308.106842
296.556641	330.805206
295.126953	339.495544
293.699219	348.182770
292.269531	288.642303
290.839844	328.818085
289.410156	330.507599
287.980469	330.448120
286.550781	311.159668
285.119141	325.085815
283.689453	342.501892
282.257812	310.991638
280.828125	344.125397
279.396484	328.344788
277.964844	302.092651
276.531250	356.160706
275.099609	314.202850
273.667969	314.146240
272.234375	314.089661
270.802734	305.309937
269.369141	293.044739
267.935547	327.871948
266.501953	319.094452
265.066406	313.806854
263.632812	313.750305
262.199219	303.237305
260.763672	308.409943
259.328125	306.612274
257.892578	313.524200
256.457031	294.311340
255.021484	323.858246
253.585938	344.690186
252.150391	330.703674
250.712891	321.942902
249.275391	318.405029
247.839844	313.128815
246.402344	313.072357
244.964844	292.148163
243.525391	328.607422
242.087891	304.211273
240.650391	276.347809
239.210938	293.675201
237.771484	324.895599
236.332031	290.095093
234.892578	293.516327
233.453125	295.199829
232.013672	335.078186
230.574219	270.791534
229.132812	315.866455
227.693359	282.840332
226.251953	274.114777
224.810547	315.695496
223.369141	291.358643
221.927734	310.379669
220.484375	310.323639
219.042969	312.000977
217.599609	306.745575
216.156250	289.363068
214.714844	297.972839
213.271484	290.990692
211.826172	294.401703
210.382812	315.126068
208.939453	296.026550
207.494141	280.395538
206.050781	288.997528
204.605469	259.531738
203.160156	275.053955
201.714844	276.733856
200.269531	293.976624
198.822266	302.568329
197.376953	262.754730
195.929688	259.250580
194.484375	283.396088
193.037109	310.988312
191.589844	257.382690
190.142578	271.152893
188.693359	302.185852
187.246094	255.516708
185.796875	271.005920
184.349609	255.424362
182.900391	301.967468
181.451172	267.408539
180.001953	263.910400
178.552734	277.659424
177.101562	255.193573
175.652344	258.595367
174.201172	279.232513
172.750000	268.841949
171.300781	287.746704
169.849609	249.794769
168.396484	273.863342
166.945312	244.538116
165.494141	282.373230
164.041016	237.563751
162.589844	285.713409
161.136719	287.382568
159.683594	254.640274
158.230469	251.153748
156.775391	273.467255
155.322266	276.856995
153.869141	245.859543
152.414062	261.285919
150.958984	273.269348
149.503906	285.248444
148.048828	252.553818
146.593750	288.580688
145.138672	252.462387
143.681641	247.265320
142.226562	254.087799
140.769531	240.309799
139.312500	250.563416
137.855469	264.245056
136.398438	231.601456
134.941406	252.142578
133.484375	257.241760
132.025391	277.770782
130.566406	234.862366
129.109375	251.959961
127.650391	221.067673
126.191406	207.320480
124.730469	229.552994
123.271484	246.639114
121.812500	246.594437
120.351562	237.988998
118.890625	213.980103
117.429688	225.922043
115.968750	242.993301
114.507812	210.441971
113.046875	256.590027
111.585938	256.543518
110.123047	229.137329
108.660156	200.031403
107.199219	208.541946
105.736328	201.667938
104.273438	228.971207
102.808594	205.011673
101.345703	172.520203
99.880859	181.027969
