#Wave		#Intensity
2199.140625	2806.926025
2198.041016	2893.433105
2196.943359	2631.194092
2195.845703	2771.848389
2194.746094	2709.948730
2193.646484	2725.418945
2192.548828	2624.879639
2191.449219	2779.085449
2190.349609	2746.785645
2189.250000	2719.043213
2188.150391	2729.952393
2187.050781	2784.038818
2185.949219	2717.674805
2184.849609	2719.490479
2183.748047	2766.736572
2182.648438	2752.645264
2181.546875	2843.014404
2180.445312	2801.669922
2179.343750	2705.859131
2178.244141	2771.224365
2177.140625	2652.757812
2176.039062	2713.572266
2174.937500	2667.746826
2173.835938	2683.175781
2172.732422	2716.741211
2171.630859	2616.521729
2170.527344	2801.973877
2169.423828	2826.435791
2168.322266	2696.787354
2167.218750	2777.904297
2166.115234	2732.128906
2165.011719	2745.260498
2163.906250	2697.240967
2162.802734	2692.259521
2161.699219	2721.238281
2160.593750	2716.254150
2159.490234	2772.377197
2158.384766	2690.451172
2157.279297	2730.722412
2156.173828	2759.670166
2155.068359	2673.263916
2153.962891	2708.995117
2152.857422	2715.322754
2151.751953	2719.387451
2150.646484	2766.393311
2149.539062	2736.551758
2148.433594	2788.057373
2147.326172	2719.819336
2146.218750	2728.396729
2145.111328	2718.905273
2144.003906	2783.926025
2142.896484	2785.715576
2141.789062	2672.393066
2140.681641	2674.200684
2139.574219	2739.184570
2138.464844	2646.230225
2137.357422	2713.452637
2136.248047	2658.871826
2135.140625	2757.636719
2134.031250	2804.516357
2132.921875	2808.552979
2131.812500	2711.172607
2130.703125	2746.769531
2129.593750	2840.930420
2128.484375	2772.876465
2127.373047	2853.488037
2126.263672	2767.440430
2125.152344	2643.147949
2124.042969	2732.744385
2122.931641	2723.282227
2121.820312	2774.580566
2120.708984	2713.366943
2119.597656	2690.415283
2118.486328	2689.962891
2117.375000	2716.495361
2116.263672	2765.502930
2115.150391	2724.573730
2114.039062	2751.086670
2112.925781	2784.332520
2111.814453	2716.458252
2110.701172	2783.395752
2109.587891	2839.080322
2108.474609	2800.425049
2107.361328	2824.652832
2106.248047	2741.113525
2105.132812	2700.249512
2104.019531	2769.365967
2102.906250	2726.266846
2101.791016	2656.260742
2100.675781	2599.736572
2099.562500	2796.657227
2098.447266	2663.889160
2097.332031	2726.215332
2096.216797	2851.284912
2095.101562	2758.915771
2093.986328	2713.634766
2092.869141	2639.243408
2091.753906	2759.762695
2090.636719	2712.264648
2089.521484	2633.432129
2088.404297	2713.590332
2087.287109	2706.417725
2086.169922	2775.345703
2085.052734	2701.030762
2083.935547	2658.064941
2082.818359	2798.551514
2081.701172	2871.890381
2080.582031	2734.992676
2079.464844	2774.778564
2078.345703	2767.604736
2077.228516	2773.843994
2076.109375	2775.611572
2074.990234	2647.782227
2073.871094	2799.250977
2072.751953	2814.415039
2071.632812	2626.344971
2070.513672	2811.233887
2069.392578	2815.225342
2068.273438	2709.839600
2067.152344	2733.932617
2066.033203	2771.406006
2064.912109	2746.397705
2063.791016	2761.549561
2062.669922	2680.794189
2061.548828	2825.285889
2060.427734	2706.645020
2059.306641	2806.500488
2058.185547	2770.367188
2057.062500	2789.955811
2055.941406	2722.644775
2054.818359	2829.113037
2053.695312	2728.408936
2052.574219	2779.167480
2051.451172	2772.019531
2050.328125	2778.230713
2049.205078	2717.666504
2048.082031	2768.392334
2046.957031	2670.024658
2045.833984	2722.966064
2044.708984	2824.823242
2043.585938	2799.884033
2042.460938	2723.812256
2041.335938	2694.452148
2040.212891	2682.883789
2039.087891	2833.554199
2037.962891	2806.412109
2036.835938	2712.629639
2035.710938	2816.571777
2034.585938	2709.493652
2033.458984	2800.078125
2032.333984	2761.863281
2031.207031	2781.375244
2030.080078	2714.323975
2028.955078	2762.684570
2027.828125	2722.282959
2026.701172	2852.701904
2025.574219	2661.480957
2024.445312	2734.210205
2023.318359	2713.794678
2022.191406	2775.406494
2021.062500	2757.206787
2019.933594	2778.901855
2018.806641	2771.785889
2017.677734	2729.227783
2016.548828	2742.056641
2015.419922	2675.157715
2014.291016	2712.346924
2013.162109	2634.406494
2012.031250	2700.364258
2010.902344	2710.973633
2009.773438	2675.113281
2008.642578	2849.432617
2007.511719	2696.329102
2006.382812	2673.758545
2005.251953	2673.307129
2004.121094	2683.909668
2002.990234	2791.767334
2001.857422	2760.355225
2000.726562	2728.953369
1999.595703	2788.143799
1998.462891	2770.001465
1997.332031	2718.736816
1996.199219	2753.608643
1995.066406	2669.246582
1993.933594	2695.285156
1992.802734	2710.279297
1991.667969	2723.061523
1990.535156	2738.045898
1989.402344	2695.670166
1988.269531	2708.448242
1987.134766	2696.964600
1986.001953	2758.244385
1984.867188	2691.644531
1983.732422	2772.740967
1982.599609	2776.679688
1981.464844	2685.873535
1980.330078	2736.087891
1979.193359	2740.030762
1978.058594	2719.747559
1976.923828	2613.599121
1975.787109	2703.417969
1974.652344	2696.357666
1973.515625	2742.117432
1972.380859	2719.650391
1971.244141	2648.790771
1970.107422	2608.749756
1968.970703	2652.293701
1967.833984	2783.778076
1966.695312	2798.696777
1965.558594	2661.939453
1964.421875	2749.399902
1963.283203	2689.605469
1962.146484	2737.485107
1961.007812	2686.499268
1959.869141	2626.745361
1958.730469	2687.786621
1957.591797	2713.678467
1956.453125	2693.462891
1955.314453	2708.370850
1954.175781	2646.468994
1953.035156	2714.036865
1951.896484	2689.447266
1950.755859	2717.505371
1949.615234	2697.309326
1948.476562	2668.349609
1947.335938	2713.934326
1946.195312	2627.993896
1945.054688	2699.867188
1943.914062	2708.174805
1942.771484	2692.381592
1941.630859	2608.693115
1940.488281	2562.262207
1939.347656	2673.498047
1938.205078	2638.018066
1937.062500	2751.392090
1935.919922	2698.402832
1934.777344	2538.213623
1933.634766	2588.102051
1932.492188	2609.537842
1931.349609	2718.446289
1930.207031	2645.827148
1929.062500	2678.173096
1927.919922	2638.373779
1926.775391	2620.442871
1925.630859	2622.184326
1924.486328	2770.305664
1923.341797	2590.714600
1922.197266	2601.196045
1921.052734	2703.388428
1919.908203	2652.714600
1918.761719	2647.899414
1917.617188	2612.530029
1916.470703	2596.812256
1915.326172	2583.281250
1914.179688	2676.646484
1913.033203	2560.595459
1911.886719	2590.691650
1910.740234	2640.400879
1909.593750	2541.854492
1908.447266	2530.525879
1907.298828	2669.568604
1906.152344	2597.213379
1905.003906	2622.915527
1903.857422	2661.677490
1902.708984	2641.626465
1901.560547	2658.598145
1900.412109	2692.979980
1899.263672	2531.450928
1898.115234	2746.474365
1896.964844	2548.000488
1895.816406	2573.675049
1894.667969	2655.895752
1893.517578	2579.327148
1892.367188	2524.528809
1891.218750	2602.367676
1890.068359	2604.100098
1888.917969	2601.485352
1887.767578	2629.292969
1886.617188	2518.044434
1885.464844	2571.923340
1884.314453	2632.299561
1883.164062	2577.565674
1882.011719	2577.128662
1880.859375	2615.765381
1879.708984	2578.425049
1878.556641	2530.247314
1877.404297	2625.282959
1876.251953	2616.160645
1875.099609	2583.183105
1873.945312	2563.228027
1872.792969	2666.865967
1871.640625	2571.029785
1870.486328	2581.430908
1869.332031	2630.835693
1868.179688	2610.889160
1867.025391	2517.293213
1865.871094	2681.480469
1864.716797	2618.222900
1863.562500	2615.613281
1862.406250	2613.004639
1861.251953	2625.548340
1860.095703	2659.729004
1858.941406	2607.346924
1857.785156	2622.048340
1856.630859	2723.266113
1855.474609	2521.675537
1854.318359	2599.090332
1853.162109	2555.410400
1852.003906	2619.823975
1850.847656	2636.668701
1849.691406	2657.829590
1848.533203	2607.687500
1847.376953	2462.517822
1846.218750	2539.850342
1845.060547	2606.359619
1843.904297	2605.916992
1842.746094	2566.618896
1841.585938	2544.600586
1840.427734	2641.273926
1839.269531	2565.311768
1838.111328	2571.347412
1836.951172	2557.969971
1835.792969	2587.725586
1834.632812	2656.280518
1833.472656	2655.829346
1832.312500	2549.766602
1831.152344	2672.166748
1829.992188	2600.610840
1828.832031	2621.711426
1827.671875	2636.343262
1826.509766	2601.439209
1825.349609	2637.600586
1824.187500	2630.694092
1823.027344	2563.522217
1821.865234	2586.759277
1820.703125	2657.324951
1819.541016	2596.636719
1818.378906	2589.742432
1817.216797	2630.163330
1816.052734	2571.660645
1814.890625	2545.425293
1813.728516	2650.317383
1812.564453	2621.928223
1811.400391	2617.185059
1810.238281	2593.107910
1809.074219	2616.295410
1807.910156	2594.374023
1806.746094	2731.359619
1805.580078	2569.875488
1804.416016	2573.731689
1803.251953	2577.586426
1802.085938	2729.502441
1800.921875	2690.419922
1799.755859	2578.416748
1798.589844	2545.807129
1797.423828	2571.106689
1796.257812	2634.989746
1795.091797	2632.397949
1793.925781	2606.230713
1792.757812	2575.786621
1791.591797	2592.489014
1790.423828	2519.213379
1789.257812	2709.407227
1788.089844	2604.014893
1786.921875	2620.700439
1785.753906	2648.083984
1784.585938	2591.983887
1783.417969	2546.602783
1782.250000	2595.381104
1781.082031	2522.204346
1779.912109	2605.192383
1778.744141	2583.363770
1777.574219	2552.989502
1776.404297	2618.827393
1775.234375	2631.206299
1774.066406	2555.960205
1772.894531	2559.798584
1771.724609	2614.908203
1770.554688	2657.183105
1769.384766	2614.018066
1768.212891	2611.437744
1767.042969	2675.040283
1765.871094	2623.355713
1764.699219	2678.397949
1763.527344	2505.102539
1762.355469	2671.085449
1761.183594	2563.976074
1760.011719	2589.132080
1758.839844	2518.322998
1757.667969	2635.154297
1756.494141	2551.571533
1755.322266	2529.824219
1754.148438	2550.702393
1752.974609	2590.748291
1751.800781	2513.620361
1750.626953	2687.837646
1749.453125	2653.308350
1748.279297	2652.856201
1747.105469	2622.602051
1745.929688	2568.945801
1744.755859	2419.547363
1743.580078	2631.899902
1742.404297	2569.760010
1741.230469	2560.814453
1740.054688	2536.985840
1738.878906	2515.291504
1737.703125	2555.253662
1736.525391	2578.198486
1735.349609	2526.756348
1734.173828	2590.068115
1732.996094	2494.029053
1731.818359	2640.161621
1730.642578	2550.517822
1729.464844	2584.055664
1728.287109	2502.943604
1727.109375	2555.581055
1725.931641	2599.711914
1724.751953	2533.491211
1723.574219	2613.675781
1722.396484	2473.235596
1721.216797	2580.972900
1720.037109	2561.449219
1718.859375	2590.692871
1717.679688	2634.764404
1716.500000	2511.394287
1715.320312	2508.847168
1714.140625	2624.941895
1712.958984	2588.484131
1711.779297	2511.799072
1710.597656	2553.720947
1709.417969	2534.230713
1708.236328	2527.447998
1707.054688	2495.270264
1705.875000	2609.112305
1704.693359	2564.237305
1703.509766	2584.953125
1702.328125	2533.752441
1701.146484	2501.600586
1699.964844	2596.315430
1698.781250	2595.872314
1697.597656	2578.520996
1696.416016	2512.572266
1695.232422	2596.656250
1694.048828	2433.553467
1692.865234	2485.940674
1691.681641	2584.767822
1690.496094	2630.776855
1689.312500	2585.996338
1688.128906	2414.591797
1686.943359	2608.326660
1685.757812	2557.242920
1684.574219	2558.915771
1683.388672	2573.243164
1682.203125	2536.953369
1681.017578	2614.534424
1679.832031	2531.870605
1678.644531	2582.024658
1677.458984	2564.724365
1676.273438	2488.432373
1675.085938	2589.128662
1673.898438	2529.708984
1672.710938	2504.005127
1671.525391	2478.309814
1670.337891	2532.623047
1669.148438	2544.819824
1667.960938	2460.203613
1666.773438	2552.366943
1665.585938	2589.799561
1664.396484	2540.977539
1663.207031	2616.254883
1662.019531	2580.061035
1660.830078	2604.848633
1659.640625	2537.138916
1658.451172	2545.111816
1657.261719	2529.967773
1656.070312	2540.040039
1654.880859	2518.599854
1653.691406	2618.980225
1652.500000	2517.738770
1651.308594	2477.417725
1650.119141	2626.033691
1648.927734	2455.582764
1647.736328	2560.084473
1646.544922	2477.822021
1645.351562	2450.127930
1644.160156	2575.550293
1642.968750	2482.842041
1641.775391	2547.413086
1640.583984	2528.110840
1639.390625	2496.239746
1638.197266	2533.532715
1637.003906	2466.052979
1635.810547	2549.424805
1634.617188	2525.949463
1633.423828	2550.646729
1632.230469	2512.522705
1631.035156	2545.587402
1629.841797	2530.500488
1628.646484	2454.730469
1627.451172	2443.848633
1626.255859	2508.281738
1625.060547	2459.745361
1623.865234	2473.963135
1622.669922	2467.267090
1621.474609	2510.746338
1620.277344	2529.128418
1619.082031	2491.078369
1617.884766	2446.773193
1616.689453	2586.324951
1615.492188	2448.024170
1614.294922	2391.218506
1613.097656	2455.538330
1611.900391	2471.819336
1610.703125	2479.745605
1609.503906	2485.581787
1608.306641	2462.203613
1607.107422	2411.711670
1605.910156	2471.789795
1604.710938	2452.596680
1603.511719	2525.157959
1602.312500	2468.435303
1601.113281	2468.012451
1599.914062	2375.888672
1598.714844	2481.753418
1597.513672	2443.827148
1596.314453	2489.235352
1595.113281	2515.883789
1593.912109	2555.017090
1592.712891	2423.415039
1591.511719	2481.285156
1590.310547	2468.372314
1589.109375	2447.140381
1587.906250	2477.929199
1586.705078	2452.542480
1585.503906	2402.206055
1584.300781	2539.039795
1583.097656	2382.670654
1581.896484	2386.419922
1580.693359	2485.774414
1579.490234	2439.631104
1578.287109	2520.243164
1577.083984	2515.656494
1575.878906	2523.532959
1574.675781	2479.491211
1573.470703	2408.472900
1572.267578	2480.717041
1571.062500	2461.611572
1569.857422	2444.587891
1568.652344	2421.345459
1567.447266	2433.377197
1566.242188	2385.254883
1565.037109	2461.575439
1563.832031	2510.915527
1562.625000	2473.169678
1561.419922	2364.964355
1560.212891	2499.261963
1559.005859	2440.817139
1557.798828	2467.329834
1556.591797	2425.480713
1555.384766	2410.568115
1554.177734	2577.871582
1552.970703	2293.808594
1551.761719	2403.117920
1550.554688	2456.512939
1549.345703	2458.160645
1548.138672	2459.807617
1546.929688	2444.906250
1545.720703	2487.916748
1544.511719	2427.525391
1543.302734	2383.693604
1542.091797	2536.244629
1540.882812	2420.075439
1539.673828	2403.129639
1538.462891	2388.255371
1537.251953	2451.879150
1536.042969	2521.677002
1534.832031	2467.556641
1533.621094	2491.907471
1532.410156	2419.232910
1531.197266	2480.732666
1529.986328	2509.195312
1528.775391	2422.113037
1527.562500	2442.324951
1526.351562	2336.721924
1525.138672	2371.375732
1523.925781	2445.190186
1522.712891	2407.665771
1521.500000	2454.655273
1520.287109	2408.899170
1519.074219	2396.123779
1517.859375	2418.371338
1516.646484	2430.313477
1515.431641	2415.481201
1514.216797	2384.183105
1513.003906	2338.485840
1511.789062	2449.225342
1510.574219	2419.994873
1509.359375	2425.751465
1508.142578	2415.049072
1506.927734	2431.088135
1505.712891	2395.711426
1504.496094	2405.579834
1503.279297	2442.168945
1502.064453	2386.254883
1500.847656	2461.879395
1499.630859	2364.888184
1498.414062	2317.233154
1497.195312	2386.668213
1495.978516	2402.686523
1494.761719	2365.315430
1493.542969	2381.331787
1492.326172	2364.502197
1491.107422	2304.582764
1489.888672	2429.346924
1488.669922	2361.230957
1487.451172	2397.744873
1486.232422	2444.499756
1485.013672	2378.466553
1483.792969	2339.106445
1482.574219	2353.052002
1481.353516	2377.239258
1480.132812	2354.291504
1478.914062	2296.524414
1477.693359	2398.543701
1476.472656	2381.747559
1475.251953	2364.957031
1474.029297	2364.550293
1472.808594	2366.190186
1471.587891	2355.550293
1470.365234	2404.253174
1469.142578	2397.701904
1467.921875	2397.289307
1466.699219	2366.199951
1465.476562	2425.090820
1464.253906	2312.230713
1463.029297	2364.978271
1461.806641	2393.183105
1460.583984	2362.120605
1459.359375	2316.767822
1458.134766	2428.715088
1456.912109	2268.997314
1455.687500	2362.536377
1454.462891	2315.172607
1453.238281	2327.021484
1452.013672	2353.152344
1450.787109	2379.274170
1449.562500	2387.025146
1448.335938	2447.809326
1447.111328	2406.597900
1445.884766	2395.987793
1444.658203	2309.946045
1443.431641	2393.124023
1442.205078	2370.292725
1440.978516	2388.223877
1439.751953	2381.700439
1438.525391	2456.660156
1437.296875	2313.669189
1436.070312	2351.960938
1434.841797	2333.231689
1433.613281	2383.720459
1432.384766	2417.909424
1431.156250	2364.584473
1429.927734	2472.009521
1428.699219	2357.666992
1427.468750	2357.260498
1426.240234	2308.049561
1425.009766	2354.414795
1423.781250	2378.402832
1422.550781	2465.388916
1421.320312	2359.293701
1420.089844	2399.522217
1418.859375	2382.857178
1417.628906	2323.545410
1416.396484	2410.465576
1415.166016	2460.809326
1413.935547	2367.003906
1412.703125	2330.061768
1411.470703	2364.158203
1410.238281	2396.214111
1409.005859	2412.029785
1407.773438	2421.755127
1406.541016	2415.253418
1405.308594	2374.285400
1404.074219	2315.086426
1402.841797	2422.111328
1401.607422	2464.250244
1400.373047	2441.537354
1399.140625	2453.270996
1397.906250	2347.522949
1396.671875	2351.168213
1395.435547	2389.233154
1394.201172	2431.333740
1392.966797	2390.432617
1391.730469	2450.731934
1390.496094	2395.677734
1389.259766	2405.379395
1388.023438	2409.009521
1386.787109	2372.191650
1385.550781	2442.551514
1384.314453	2407.762207
1383.078125	2425.537842
1381.839844	2410.972656
1380.603516	2331.753662
1379.365234	2404.079346
1378.128906	2381.445557
1376.890625	2370.936523
1375.652344	2326.104980
1374.414062	2414.532227
1373.175781	2341.449463
1371.935547	2351.135986
1370.697266	2467.761719
1369.458984	2459.265869
1368.218750	2380.174316
1366.978516	2347.495117
1365.740234	2351.122314
1364.500000	2346.684082
1363.259766	2384.576904
1362.019531	2366.026855
1360.777344	2339.422852
1359.537109	2373.267822
1358.294922	2356.743164
1357.054688	2332.168457
1355.812500	2349.887939
1354.570312	2430.012451
1353.330078	2421.540771
1352.087891	2320.493652
1350.843750	2310.031494
1349.601562	2337.798340
1348.359375	2343.428955
1347.115234	2324.923096
1345.873047	2378.813721
1344.628906	2436.706299
1343.384766	2347.839111
1342.142578	2327.335205
1340.898438	2395.253906
1339.654297	2368.721436
1338.408203	2380.364258
1337.164062	2337.776123
1335.919922	2353.436279
1334.673828	2365.075439
1333.427734	2358.644287
1332.183594	2318.096191
1330.937500	2217.362061
1329.691406	2341.370117
1328.445312	2232.642822
1327.197266	2270.363281
1325.951172	2286.012695
1324.705078	2321.705811
1323.457031	2277.203369
1322.208984	2298.855957
1320.962891	2364.586426
1319.714844	2320.099365
1318.466797	2273.624268
1317.218750	2347.336182
1315.970703	2290.859863
1314.720703	2252.422607
1313.472656	2189.976562
1312.222656	2303.680664
1310.974609	2331.297607
1309.724609	2294.880127
1308.474609	2222.467773
1307.224609	2312.086426
1305.974609	2255.693604
1304.724609	2351.273438
1303.472656	2322.879639
1302.222656	2310.485352
1300.972656	2316.080322
1299.720703	2255.739258
1298.468750	2327.264160
1297.216797	2284.917480
1295.964844	2302.494385
1294.712891	2296.105713
1293.460938	2175.931885
1292.208984	2299.302246
1290.955078	2256.996826
1289.703125	2348.386475
1288.449219	2156.470703
1287.195312	2233.884033
1285.943359	2243.467773
1284.689453	2253.048340
1283.433594	2286.547607
1282.179688	2316.048584
1280.925781	2333.582520
1279.671875	2263.441895
1278.416016	2229.183594
1277.160156	2346.311768
1275.906250	2300.102295
1274.650391	2343.507568
1273.394531	2279.397461
1272.138672	2233.223389
1270.880859	2274.627197
1269.625000	2325.965088
1268.369141	2238.030029
1267.111328	2287.367432
1265.855469	2249.186035
1264.597656	2175.228027
1263.339844	2220.574219
1262.082031	2293.731689
1260.824219	2293.333984
1259.566406	2267.105957
1258.306641	2310.417969
1257.048828	2302.072021
1255.789062	2218.264404
1254.531250	2225.822021
1253.271484	2306.829834
1252.011719	2344.142334
1250.751953	2226.648193
1249.492188	2204.435791
1248.232422	2263.568604
1246.970703	2324.664551
1245.710938	2282.614746
1244.449219	2208.854492
1243.189453	2291.734863
1241.927734	2269.533691
1240.666016	2322.647949
1239.404297	2355.929199
1238.142578	2232.692627
1236.880859	2305.592773
1235.617188	2245.780273
1234.355469	2304.792236
1233.091797	2320.229980
1231.830078	2149.600830
1230.566406	2325.361328
1229.302734	2279.447754
1228.039062	2261.246826
1226.775391	2284.590332
1225.511719	2345.500977
1224.246094	2279.842285
1222.982422	2263.630371
1221.716797	2298.816650
1220.453125	2343.871826
1219.187500	2296.042236
1217.921875	2214.643799
1216.656250	2158.952148
1215.390625	2219.799072
1214.125000	2320.116455
1212.857422	2280.229004
1211.591797	2348.918457
1210.324219	2275.489502
1209.058594	2239.576660
1207.791016	2262.861572
1206.523438	2244.715820
1205.255859	2333.073242
1203.988281	2334.639404
1202.718750	2275.089355
1201.451172	2357.481689
1200.183594	2250.648926
1198.914062	2285.725830
1197.644531	2261.687256
1196.375000	2277.052002
1195.105469	2306.197510
1193.835938	2227.033203
1192.566406	2252.239746
1191.296875	2336.489258
1190.027344	2279.009277
1188.755859	2376.998779
1187.484375	2290.020996
1186.214844	2285.688721
1184.943359	2318.724854
1183.671875	2351.749268
1182.400391	2388.694336
1181.128906	2309.652344
1179.855469	2250.291016
1178.583984	2302.954102
1177.310547	2280.942383
1176.039062	2219.652344
1174.765625	2256.581299
1173.492188	2395.604980
1172.218750	2196.897949
1170.945312	2261.292236
1169.671875	2258.936279
1168.398438	2305.636963
1167.123047	2264.035645
1165.849609	2271.487793
1164.574219	2208.333496
1163.298828	2158.927246
1162.023438	2284.025635
1160.748047	2220.901855
1159.472656	2226.394775
1158.197266	2259.318848
1156.921875	2235.415527
1155.644531	2215.437988
1154.369141	2277.723877
1153.091797	2322.364746
1151.814453	2239.732422
1150.537109	2233.469971
1149.259766	2223.295166
1147.982422	2228.778320
1146.705078	2132.524414
1145.427734	2245.606934
1144.148438	2243.260010
1142.871094	2272.200684
1141.591797	2185.781250
1140.312500	2261.635254
1139.033203	2296.420410
1137.753906	2256.939209
1136.474609	2217.471680
1135.195312	2215.131836
1133.914062	2226.464111
1132.634766	2226.075928
1131.353516	2286.211182
1130.072266	2229.204102
1128.791016	2211.250488
1127.511719	2236.232666
1126.228516	2206.577881
1124.947266	2173.031982
1123.666016	2213.609863
1122.384766	2217.124023
1121.101562	2181.643799
1119.818359	2206.604492
1118.537109	2208.168701
1117.253906	2250.653076
1115.970703	2176.226074
1114.687500	2185.586426
1113.402344	2220.261963
1112.119141	2274.397949
1110.835938	2166.920898
1109.550781	2234.673096
1108.265625	2144.756348
1106.982422	2288.378906
1105.697266	2208.211670
1104.412109	2198.100342
1103.126953	2228.834961
1101.839844	2236.224365
1100.554688	2195.005859
1099.267578	2194.622803
1097.982422	2285.585449
1096.695312	2172.481934
1095.408203	2302.273682
1094.121094	2175.608887
1092.833984	2264.568848
1091.546875	2167.082031
1090.259766	2211.358154
1088.970703	2242.030518
1087.683594	2220.290283
1086.394531	2260.652588
1085.107422	2130.268799
1083.818359	2236.585693
1082.529297	2166.374756
1081.240234	2162.118408
1079.949219	2185.006104
1078.660156	2109.025391
1077.371094	2157.109619
1076.080078	2174.172852
1074.789062	2202.854492
1073.500000	2233.463135
1072.208984	2200.148438
1070.917969	2112.625488
1069.626953	2152.914062
1068.333984	2208.674316
1067.042969	2146.355713
1065.750000	2151.785889
1064.458984	2114.650391
1063.166016	2181.984131
1061.873047	2173.866699
1060.580078	2115.475586
1059.287109	2101.572510
1057.994141	2199.789795
1056.701172	2160.751465
1055.406250	2117.862061
1054.113281	2051.803223
1052.818359	2136.438477
1051.525391	2120.614258
1050.230469	2079.692627
1048.935547	2154.625000
1047.640625	2119.502441
1046.343750	2041.932129
1045.048828	2149.635742
1043.753906	2102.956299
1042.457031	2131.523193
1041.160156	2034.718384
1039.865234	2115.351318
1038.568359	2138.117188
1037.271484	2166.657715
1035.974609	2160.496826
1034.675781	2110.018066
1033.378906	2165.520996
1032.080078	2080.385742
1030.783203	2166.689209
1029.484375	2152.831055
1028.185547	2056.190674
1026.886719	2096.254639
1025.587891	2155.550293
1024.289062	2032.020508
1022.990234	2087.458740
1021.689453	2125.565186
1020.390625	2146.348877
1019.089844	2053.673340
1017.789062	2087.920410
1016.488281	2227.878662
1015.187500	2039.141846
1013.886719	2182.902588
1012.585938	2074.931396
1011.285156	2038.071167
1009.982422	2041.555542
1008.681641	2144.890137
1007.378906	2090.757812
1006.076172	2130.702148
1004.773438	2132.248291
1003.470703	2089.659668
1002.167969	2072.026855
1000.865234	2073.582031
999.560547	2138.426514
998.257812	2161.062500
996.953125	2112.753906
995.648438	2121.968018
994.343750	2140.761719
993.039062	2128.889404
991.734375	2130.432373
990.429688	2070.677979
989.125000	2164.159180
987.818359	2125.483154
986.513672	2130.854248
985.207031	2105.596436
983.900391	2053.553711
982.593750	2095.291016
981.287109	2010.744141
979.980469	2106.033447
978.673828	2098.014404
977.365234	2088.085693
976.058594	2261.696289
974.750000	2087.353760
973.443359	2127.122070
972.134766	2124.838379
970.826172	2009.836426
969.517578	2028.585571
968.207031	2106.532471
966.898438	2090.887207
965.589844	2119.157715
964.279297	2059.612793
962.968750	2087.878906
961.658203	2049.349609
960.349609	2056.621582
959.039062	2102.040283
957.726562	2147.442871
956.416016	2131.811768
955.105469	2100.934082
953.792969	2098.659424
952.482422	2052.551758
951.169922	2141.748779
949.857422	2084.218750
948.544922	2133.377930
947.232422	2113.958984
945.919922	2096.450684
944.605469	2061.814453
943.292969	2057.645508
941.978516	2043.962524
940.666016	2096.882080
939.351562	2098.416260
938.037109	2077.124512
936.722656	2046.331177
935.408203	2101.114258
934.091797	2051.316162
932.777344	2056.658203
931.460938	2061.998535
930.146484	2069.236816
928.830078	2091.670898
927.513672	2013.425903
926.197266	2092.835449
924.880859	2153.229248
923.564453	2069.318848
922.246094	2059.464844
920.929688	2051.511719
919.611328	1999.920044
918.294922	2007.157227
916.976562	2027.669312
915.658203	2089.895996
914.339844	2038.333496
913.021484	1967.831055
911.701172	2035.721802
910.382812	2078.951904
909.062500	1989.531250
907.744141	1998.653931
906.423828	1924.431763
905.103516	2005.526489
903.783203	1999.493652
902.462891	2046.470337
901.142578	1966.613159
899.820312	2043.858398
898.500000	1994.303711
897.177734	1963.684326
895.855469	1984.145142
894.535156	2031.074463
893.212891	2068.533203
891.890625	1958.522461
890.566406	2058.354980
889.244141	2052.323730
887.921875	1949.931396
886.597656	2027.042969
885.273438	1977.577515
883.951172	2086.760986
882.626953	1907.020630
881.302734	2035.056030
879.976562	1993.173462
878.652344	2017.355713
877.328125	1984.924927
876.001953	1909.116455
874.677734	2006.860107
873.351562	2023.479248
872.025391	1989.184448
870.699219	1998.260132
869.373047	1933.824585
868.046875	2006.979126
866.718750	2004.741699
865.392578	1979.899170
864.064453	1994.618530
862.738281	2005.566284
861.410156	2001.447510
860.082031	2014.272583
858.753906	2017.682251
857.425781	2019.208740
856.095703	2124.217285
854.767578	1937.607300
853.437500	2031.307983
852.109375	2012.145142
850.779297	2009.910645
849.449219	1985.118530
848.119141	1934.021973
846.789062	1999.452637
845.457031	1999.100464
844.126953	2008.140869
842.796875	2002.152466
841.464844	2044.990479
840.132812	2042.752563
838.800781	2001.094238
837.468750	1974.465454
836.136719	2024.783936
834.804688	2131.370850
833.472656	2025.946167
832.138672	1991.829224
830.806641	2057.110596
829.472656	1974.253174
828.138672	1930.790405
826.804688	1960.437500
825.470703	1991.948120
824.136719	2015.953125
822.802734	2002.485107
821.466797	1964.673950
820.132812	2119.750977
818.796875	1973.342285
817.460938	1987.969482
816.125000	2023.178955
814.789062	1951.714600
813.453125	1932.661133
812.117188	1934.190796
810.779297	1997.438477
809.443359	2043.834351
808.105469	1931.297607
806.767578	2000.119995
805.431641	1936.223022
804.093750	1950.830322
802.753906	1957.959106
801.416016	1980.029053
800.078125	2013.296875
798.738281	1947.586304
797.400391	1941.641602
796.060547	1969.298462
794.720703	1907.362793
793.380859	1976.067139
792.041016	1895.495483
790.701172	1863.450562
789.361328	1980.615723
788.019531	2002.641846
786.679688	1812.126831
785.337891	1932.966797
783.996094	1908.397705
782.654297	1902.470703
781.312500	1952.436035
779.970703	1950.228516
778.628906	1873.527466
777.285156	1895.540894
775.943359	1915.684692
774.599609	1876.257568
773.255859	1935.479370
771.912109	1920.251709
770.568359	1895.727539
769.224609	1912.133057
767.880859	1908.075684
766.535156	1894.722778
765.191406	1907.401367
763.845703	1908.923096
762.500000	1893.718384
761.156250	1908.248413
759.810547	1907.911011
758.462891	1877.855103
757.117188	1949.949829
755.771484	1830.771973
754.423828	1921.413818
753.078125	1857.966431
751.730469	1905.888184
750.382812	1833.188477
749.035156	1823.588745
747.687500	1906.732178
746.339844	1954.611206
744.990234	1917.182617
743.642578	1814.883789
742.292969	1834.951172
740.945312	1890.221313
739.595703	1886.181274
738.246094	1861.765137
736.896484	1835.505371
735.546875	1853.699097
734.195312	1931.134888
732.845703	1893.769409
731.494141	1808.294556
730.144531	1863.490601
728.792969	1791.002686
727.441406	1829.533325
726.089844	1847.705078
724.738281	1893.608643
723.384766	1847.051025
722.033203	1721.021118
720.679688	1789.101562
719.328125	1810.959839
717.974609	1814.334473
716.621094	1932.238159
715.267578	1861.712402
713.914062	1829.990356
712.558594	1763.200195
711.205078	1796.115112
709.849609	1860.394043
708.496094	1843.456909
707.140625	1798.850952
705.785156	1866.784302
704.429688	1777.926270
703.074219	1851.371094
701.718750	1731.204712
700.361328	1867.305298
699.005859	1796.939941
697.648438	1829.789917
696.291016	1796.303223
694.935547	1788.616699
693.578125	1830.659058
692.218750	1797.189819
690.861328	1793.189209
689.503906	1855.456177
688.144531	1812.798096
686.787109	1775.675171
685.427734	1801.116943
684.068359	1758.490845
682.708984	1791.282959
681.349609	1789.126587
679.990234	1856.831909
678.628906	1753.567871
677.269531	1835.957764
675.908203	1802.557739
674.548828	1715.892334
673.187500	1816.613037
671.826172	1864.039673
670.464844	1793.934692
669.101562	1766.078857
667.740234	1767.601196
666.378906	1820.508057
665.015625	1781.652954
663.652344	1808.854980
662.289062	1839.715698
660.925781	1791.708252
659.562500	1817.060181
658.199219	1763.573853
656.835938	1781.590088
655.470703	1777.608643
654.107422	1797.448120
652.742188	1754.994507
651.376953	1760.177856
650.011719	1812.972778
648.646484	1755.891113
647.281250	1755.579468
645.916016	1707.679688
644.548828	1775.085938
643.181641	1776.600464
641.816406	1726.892944
640.449219	1788.772705
639.082031	1790.283691
637.714844	1802.764404
636.347656	1743.947021
634.978516	1783.846924
633.611328	1717.744141
632.242188	1797.829834
630.875000	1771.936157
629.505859	1711.349731
628.136719	1734.784790
626.767578	1739.953979
625.398438	1746.946533
624.027344	1721.084595
622.658203	1780.996826
621.287109	1802.573975
619.917969	1732.936157
618.546875	1694.328003
617.175781	1710.438354
615.804688	1826.817261
614.431641	1717.121826
613.060547	1762.379639
611.689453	1692.822754
610.316406	1763.574951
608.943359	1777.833862
607.572266	1755.663086
606.199219	1749.888184
604.826172	1733.191772
603.451172	1791.131836
602.078125	1674.337646
600.705078	1697.694702
599.330078	1755.609985
597.955078	1726.194336
596.582031	1705.882202
595.207031	1769.219849
593.830078	1727.091309
592.455078	1750.413696
591.080078	1681.043213
589.705078	1753.425049
588.328125	1729.495972
586.951172	1652.900513
585.574219	1698.007690
584.197266	1723.125732
582.820312	1715.557373
581.443359	1660.799683
580.066406	1713.132080
578.687500	1694.682739
577.310547	1670.797729
575.931641	1714.031250
574.552734	1697.404907
573.173828	1666.279297
571.794922	1651.479980
570.416016	1618.561035
569.037109	1681.698975
567.656250	1675.963989
566.277344	1595.958130
564.896484	1660.877441
563.515625	1624.363892
562.134766	1562.515503
560.753906	1618.354614
559.373047	1603.587036
557.992188	1673.875610
556.609375	1586.732300
555.226562	1602.730225
553.845703	1602.444580
552.462891	1632.900269
551.080078	1641.649292
549.697266	1605.203491
548.314453	1659.137695
546.929688	1610.052490
545.546875	1640.479370
544.162109	1692.571899
542.777344	1627.252319
541.394531	1635.990967
540.009766	1617.645264
538.625000	1583.060181
537.238281	1570.144653
535.853516	1642.042358
534.466797	1667.007324
533.082031	1578.323975
531.695312	1578.042480
530.308594	1613.824219
528.921875	1645.987427
527.535156	1615.051147
526.148438	1609.356567
524.759766	1657.719971
523.373047	1606.980957
521.984375	1613.899170
520.597656	1610.009399
519.208984	1553.904175
517.820312	1571.629517
516.431641	1589.348511
515.041016	1646.652832
513.652344	1595.978638
512.261719	1628.075439
510.873047	1604.402344
509.482422	1593.325928
508.091797	1607.425659
506.701172	1515.456421
505.310547	1578.093994
503.919922	1527.494751
502.527344	1584.717529
501.136719	1607.787964
499.744141	1519.492432
498.351562	1567.706909
496.958984	1583.586060
495.566406	1592.278931
494.173828	1534.560791
492.781250	1530.697754
491.386719	1595.014404
489.994141	1571.409546
488.599609	1610.586426
487.205078	1556.502563
485.810547	1604.632446
484.416016	1584.627563
483.021484	1557.460815
481.626953	1550.014771
480.230469	1553.321045
478.835938	1601.408203
477.439453	1515.155762
476.042969	1565.023071
474.646484	1554.001465
473.250000	1603.843750
471.853516	1562.394409
470.457031	1519.170410
469.058594	1527.844116
467.662109	1464.965576
466.263672	1543.393555
464.865234	1584.243530
463.466797	1516.025269
462.068359	1601.551636
460.669922	1517.270264
459.269531	1515.212158
457.871094	1504.222290
456.470703	1477.160767
455.072266	1469.753174
453.671875	1551.624634
452.271484	1551.347046
450.871094	1493.953125
449.468750	1570.422363
448.068359	1530.887939
446.666016	1537.749756
445.265625	1557.094360
443.863281	1476.567627
442.460938	1547.622314
441.058594	1481.387207
439.656250	1498.945435
438.253906	1512.933350
436.849609	1510.880859
435.447266	1394.820679
434.042969	1430.192261
432.638672	1522.534912
431.234375	1520.481934
429.830078	1538.010742
428.425781	1473.663086
427.021484	1453.825073
425.615234	1467.797974
424.210938	1437.295044
422.804688	1520.627808
421.398438	1472.344238
419.992188	1552.084961
418.585938	1441.598389
417.179688	1508.875244
415.773438	1558.358765
414.365234	1492.345337
412.957031	1534.708862
411.550781	1509.570435
410.142578	1534.158936
408.734375	1578.267334
407.326172	1494.559082
405.916016	1551.081421
404.507812	1634.199097
403.099609	1562.943970
401.689453	1674.409424
400.279297	1585.438232
398.869141	1553.238159
397.458984	1519.276855
396.048828	1520.776978
394.638672	1495.694336
393.226562	1506.057129
391.816406	1518.187744
390.404297	1443.525269
388.992188	1482.225830
387.580078	1499.665649
386.167969	1506.477661
384.755859	1481.428467
383.343750	1495.319702
381.929688	1445.511353
380.517578	1466.479736
379.103516	1460.910767
377.689453	1467.722046
376.275391	1442.706421
374.861328	1415.932007
373.447266	1369.725830
372.033203	1408.355713
370.617188	1468.172607
369.201172	1416.682495
367.787109	1414.662109
366.371094	1435.597900
364.955078	1403.561523
363.539062	1415.665771
362.121094	1436.589844
360.705078	1464.564575
359.287109	1337.277954
357.871094	1333.510010
356.453125	1419.686279
355.035156	1354.190552
353.617188	1345.132568
352.199219	1369.567993
350.781250	1425.716187
349.361328	1323.264038
347.943359	1340.643311
346.523438	1338.641113
345.103516	1380.665894
343.683594	1401.546753
342.263672	1441.784668
340.843750	1341.199707
339.421875	1321.601074
338.001953	1323.123169
336.580078	1396.770020
335.158203	1417.625122
333.738281	1382.199829
332.316406	1392.500732
330.892578	1348.303223
329.470703	1346.303345
328.048828	1374.177490
326.625000	1342.305542
325.203125	1236.666504
323.779297	1340.066650
322.355469	1297.681885
320.931641	1318.516724
319.507812	1323.545776
318.082031	1356.653687
316.658203	1317.805664
315.232422	1300.024414
313.806641	1299.790649
312.382812	1310.079712
310.957031	1355.434326
309.531250	1313.114746
308.103516	1349.688232
306.677734	1295.117188
305.250000	1289.627563
303.824219	1333.192871
302.396484	1313.685669
300.968750	1250.403809
299.541016	1267.688232
298.113281	1262.208252
296.685547	1268.982422
295.255859	1218.003906
293.828125	1284.272949
292.398438	1275.294922
290.968750	1248.829468
289.539062	1301.067017
288.109375	1265.864136
286.679688	1171.238037
285.250000	1258.417236
283.818359	1233.725830
282.386719	1249.228271
280.957031	1278.699951
279.525391	1273.230103
278.093750	1260.777100
276.662109	1241.345093
275.228516	1190.499023
273.796875	1233.916748
272.363281	1193.560181
270.931641	1233.472290
269.498047	1241.971802
268.064453	1203.379517
266.630859	1229.318359
265.197266	1185.511841
263.761719	1218.416870
262.328125	1178.113647
260.892578	1170.931519
259.458984	1189.884033
258.023438	1160.058472
256.587891	1189.455200
255.152344	1239.735596
253.714844	1223.844238
252.279297	1258.435059
250.843750	1284.312134
249.406250	1287.560425
247.968750	1256.014893
246.531250	1221.002075
245.093750	1215.564941
243.656250	1191.004028
242.218750	1173.405396
240.779297	1183.622192
239.341797	1139.964966
237.902344	1181.457886
236.462891	1156.925049
235.023438	1163.663574
233.583984	1095.730225
232.144531	1163.243774
230.703125	1145.675171
229.263672	1147.203979
227.822266	1134.850342
226.380859	1195.368164
224.939453	1156.990845
223.498047	1101.284302
222.056641	1118.425415
220.615234	1229.179077
219.171875	1142.288818
217.730469	1124.752075
216.287109	1115.885376
214.843750	1148.600098
213.400391	1110.286133
211.957031	1110.085693
210.513672	1120.274170
209.070312	1090.641968
207.625000	1093.906738
206.179688	1104.092407
204.736328	1116.004761
203.291016	1098.503906
201.845703	1160.571655
200.398438	1047.957397
198.953125	1135.946533
197.507812	1076.966309
196.060547	1097.512085
194.613281	1081.761353
193.167969	1047.011108
191.720703	1060.641357
190.271484	1105.354736
188.824219	1068.892090
187.376953	1049.707520
185.927734	1049.517700
184.480469	1080.393677
183.031250	1050.863892
181.582031	1119.683716
180.132812	1119.481323
178.683594	1100.308105
177.232422	1067.347412
175.783203	1058.534424
174.332031	1051.448242
172.882812	1111.576172
171.431641	1070.021729
169.980469	1037.095947
168.529297	1047.243042
167.076172	1064.274902
165.625000	1003.818787
164.171875	1039.788818
162.720703	1086.072998
161.267578	1085.876465
159.814453	1087.400635
158.361328	1049.358154
156.908203	954.571167
155.453125	992.230408
154.000000	993.770203
152.544922	1027.970703
151.089844	998.566650
149.636719	933.087036
148.181641	965.561707
146.724609	958.515808
145.269531	1004.713745
143.814453	1006.248962
142.357422	1006.066833
140.900391	1004.168152
139.445312	885.567444
137.988281	933.452393
136.531250	921.274231
135.072266	953.697815
133.615234	943.235229
132.156250	927.632446
130.699219	850.318604
129.240234	898.157715
127.781250	935.697144
126.322266	945.808105
124.863281	859.981262
123.404297	918.060669
121.943359	861.382202
120.484375	909.167114
119.023438	912.426086
117.562500	908.837646
116.101562	908.672913
114.640625	903.375427
113.179688	896.369202
111.716797	838.055908
110.255859	851.584045
108.792969	789.880554
107.330078	699.139771
105.867188	690.467651
104.404297	627.118042
102.941406	604.794373
101.478516	575.646179
100.013672	577.249573
