#Wave		#Intensity
2199.041016	8022.269043
2197.943359	7969.910156
2196.843750	7968.573242
2195.746094	7937.652344
2194.646484	7995.479004
2193.548828	7875.840820
2192.449219	7908.637695
2191.349609	7895.939941
2190.250000	7876.424316
2189.150391	7870.556152
2188.050781	7757.856934
2186.951172	7806.553223
2185.849609	7923.401367
2184.750000	7674.436035
2183.650391	7843.510742
2182.548828	7839.923340
2181.447266	7756.860840
2180.347656	7880.428711
2179.246094	7867.755859
2178.144531	7700.754395
2177.042969	7930.922363
2175.939453	7768.503418
2174.837891	7685.534668
2173.736328	7940.537109
2172.632812	7837.157715
2171.531250	7749.684082
2170.427734	7927.470703
2169.324219	7708.550293
2168.222656	7677.795898
2167.119141	7758.075195
2166.015625	7845.123047
2164.912109	7778.120117
2163.806641	7720.197266
2162.703125	7816.264648
2161.599609	7760.618164
2160.494141	7804.584961
2159.390625	7755.748535
2158.285156	7657.147461
2157.179688	7755.405762
2156.074219	7846.844238
2154.968750	7684.952148
2153.863281	7670.093262
2152.757812	7702.717773
2151.652344	7934.251953
2150.544922	7736.291016
2149.439453	7610.707031
2148.332031	7767.581543
2147.226562	7560.711914
2146.119141	7803.367188
2145.011719	7671.080566
2143.904297	7825.580566
2142.796875	7731.710449
2141.689453	7692.041504
2140.582031	7760.705566
2139.474609	7723.300293
2138.365234	7803.215332
2137.257812	7551.539062
2136.148438	7755.488770
2135.041016	7666.249023
2133.931641	7653.687988
2132.822266	7557.732422
2131.712891	7786.333496
2130.603516	7778.264648
2129.494141	7711.623047
2128.382812	7681.043945
2127.273438	7805.871582
2126.164062	7739.258301
2125.052734	7710.940430
2123.941406	7608.349121
2122.832031	7609.320312
2121.720703	7610.291016
2120.609375	7629.259766
2119.498047	7726.953613
2118.386719	7721.155762
2117.275391	7575.938965
2116.162109	7765.773438
2115.050781	7645.325195
2113.937500	7709.219238
2112.826172	7622.528320
2111.712891	7699.884766
2110.599609	7801.926270
2109.486328	7537.822754
2108.373047	7583.714355
2107.259766	7564.475586
2106.146484	7763.002441
2105.033203	7665.180176
2103.919922	7791.808594
2102.804688	7568.360840
2101.691406	7567.086914
2100.576172	7574.785645
2099.460938	7737.226074
2098.345703	7740.408203
2097.230469	7698.750977
2096.115234	7742.286133
2095.000000	7646.854004
2093.884766	7636.603516
2092.769531	7523.297363
2091.652344	7681.073242
2090.537109	7637.226562
2089.419922	7750.144043
2088.302734	7594.354980
2087.187500	7588.599121
2086.070312	7533.605957
2084.953125	7619.610352
2083.835938	7647.413574
2082.716797	7576.778320
2081.599609	7600.105469
2080.482422	7692.748535
2079.363281	7577.422363
2078.246094	7649.917969
2077.126953	7601.691895
2076.007812	7589.237793
2074.888672	7554.443848
2073.769531	7521.895020
2072.650391	7810.999512
2071.531250	7541.693359
2070.412109	7571.683105
2069.292969	7465.479980
2068.171875	7709.755859
2067.052734	7507.599609
2065.931641	7457.244629
2064.810547	7500.607910
2063.689453	7673.332031
2062.568359	7788.011719
2061.447266	7536.954102
2060.326172	7542.372559
2059.205078	7516.581055
2058.083984	7504.170410
2056.960938	7480.622070
2055.839844	7597.444824
2054.716797	7540.473633
2053.595703	7534.748047
2052.472656	7533.478027
2051.349609	7550.020020
2050.226562	7397.371582
2049.103516	7514.088379
2047.980469	7474.990234
2046.855469	7567.179688
2045.732422	7387.934570
2044.607422	7393.361816
2043.484375	7672.321289
2042.359375	7528.724609
2041.234375	7605.263672
2040.111328	7517.294434
2038.986328	7509.359863
2037.861328	7630.302246
2036.734375	7511.270020
2035.609375	7594.410156
2034.484375	7484.307129
2033.357422	7483.044434
2032.232422	7619.429199
2031.105469	7396.169922
2029.978516	7432.651367
2028.853516	7262.754395
2027.726562	7510.013672
2026.599609	7488.782715
2025.470703	7434.290039
2024.343750	7395.338379
2023.216797	7329.793945
2022.087891	7481.512695
2020.960938	7555.606445
2019.832031	7343.812012
2018.705078	7380.238281
2017.576172	7378.992676
2016.447266	7481.846191
2015.318359	7420.791992
2014.189453	7488.177246
2013.060547	7427.141602
2011.929688	7348.419922
2010.800781	7245.380859
2009.669922	7500.823242
2008.541016	7322.576172
2007.410156	7272.678223
2006.279297	7399.718262
2005.148438	7382.990723
2004.017578	7315.421387
2002.886719	7460.071777
2001.755859	7279.800781
2000.625000	7282.990723
1999.494141	7334.783203
1998.361328	7413.064941
1997.228516	7462.608887
1996.097656	7222.867676
1994.964844	7371.776855
1993.832031	7202.769043
1992.699219	7316.317871
1991.566406	7253.295410
1990.433594	7291.783203
1989.300781	7281.728027
1988.166016	7417.241211
1987.033203	7252.805664
1985.898438	7306.700195
1984.765625	7245.946289
1983.630859	7376.964844
1982.496094	7351.478027
1981.361328	7317.186035
1980.226562	7263.079102
1979.091797	7239.825684
1977.957031	7201.165039
1976.820312	7310.039062
1975.685547	7150.299316
1974.548828	7237.133789
1973.414062	7306.333008
1972.277344	7131.271484
1971.140625	7209.264648
1970.003906	7208.045898
1968.867188	7134.253418
1967.730469	7214.404297
1966.593750	7101.062500
1965.457031	7132.833496
1964.318359	7107.452637
1963.181641	7330.380859
1962.042969	7210.504395
1960.904297	7081.881348
1959.767578	7284.934082
1958.628906	7180.496094
1957.490234	7102.439453
1956.351562	7112.213867
1955.210938	7108.816406
1954.072266	7019.838379
1952.933594	7080.083496
1951.792969	7028.432129
1950.654297	7207.091309
1949.513672	6925.180664
1948.373047	7075.293945
1947.232422	6992.986816
1946.091797	7158.379395
1944.951172	6924.877930
1943.810547	7002.583984
1942.669922	6894.056152
1941.527344	6952.027832
1940.386719	6988.080078
1939.244141	7067.911621
1938.101562	7114.877441
1936.960938	6977.966309
1935.818359	6922.074219
1934.675781	6988.732910
1933.533203	7077.246094
1932.388672	6914.185059
1931.246094	6812.414062
1930.103516	6933.710449
1928.958984	6960.957520
1927.816406	6922.619629
1926.671875	6928.003906
1925.527344	6835.055664
1924.382812	6984.646484
1923.238281	6867.691406
1922.093750	6894.920410
1920.949219	6869.732910
1919.804688	6857.653320
1918.658203	7018.026855
1917.513672	6813.862793
1916.367188	6858.534180
1915.222656	6883.553711
1914.076172	6843.122559
1912.929688	6719.824219
1911.783203	6801.551758
1910.636719	6822.203125
1909.490234	6807.967773
1908.343750	6865.662598
1907.195312	6836.169922
1906.048828	6702.102539
1904.900391	6740.179199
1903.753906	6856.654785
1902.605469	6816.293945
1901.457031	6775.946289
1900.308594	6853.169434
1899.160156	6725.764160
1898.011719	6748.562988
1896.861328	6845.333984
1895.712891	6726.696289
1894.564453	6742.957031
1893.414062	6789.659180
1892.263672	6781.985352
1891.115234	6735.180664
1889.964844	6671.002441
1888.814453	6863.295410
1887.664062	6707.853516
1886.513672	6758.857910
1885.361328	6814.188965
1884.210938	6784.799805
1883.058594	6798.849609
1881.908203	6678.286621
1880.755859	6861.666016
1879.603516	6797.562012
1878.453125	6963.498535
1877.300781	6526.223145
1876.148438	6692.148926
1874.994141	6714.871582
1873.841797	6711.564453
1872.689453	6797.151855
1871.535156	6676.770996
1870.382812	6705.981934
1869.228516	6600.826172
1868.074219	6760.040527
1866.919922	6691.737793
1865.765625	6684.104980
1864.611328	6719.785645
1863.457031	6707.819336
1862.302734	6773.791016
1861.148438	6696.885254
1859.992188	6721.717773
1858.837891	6787.653320
1857.681641	6691.312500
1856.525391	6789.675293
1855.369141	6656.602051
1854.212891	6601.415527
1853.056641	6766.761230
1851.900391	6748.320312
1850.744141	6801.204102
1849.585938	6644.471680
1848.429688	6682.231445
1847.271484	6765.339844
1846.115234	6636.768555
1844.957031	6685.306641
1843.798828	6856.889160
1842.640625	6702.463867
1841.482422	6653.844727
1840.324219	6542.663086
1839.166016	6630.009766
1838.005859	6736.740723
1836.847656	6692.460938
1835.687500	6734.452637
1834.527344	6741.932617
1833.369141	6680.428711
1832.208984	6621.100586
1831.048828	6669.539551
1829.888672	6633.933594
1828.726562	6622.035645
1827.566406	6582.141113
1826.406250	6641.320312
1825.244141	6732.775391
1824.083984	6576.633789
1822.921875	6691.745117
1821.759766	6688.455566
1820.597656	6745.413574
1819.435547	6744.267578
1818.273438	6609.764160
1817.111328	6505.414551
1815.949219	6768.781738
1814.785156	6726.784668
1813.623047	6714.894043
1812.458984	6730.945312
1811.296875	6581.539062
1810.132812	6634.129395
1808.968750	6633.001465
1807.804688	6511.606445
1806.640625	6688.722168
1805.476562	6507.245605
1804.310547	6686.447754
1803.146484	6526.494629
1801.980469	6557.571777
1800.816406	6573.620117
1799.650391	6636.854492
1798.484375	6734.382324
1797.318359	6621.730957
1796.152344	6513.405762
1794.986328	6555.170410
1793.820312	6588.347168
1792.654297	6589.369629
1791.486328	6652.523926
1790.320312	6480.020020
1789.152344	6440.365234
1787.984375	6552.765137
1786.816406	6545.227051
1785.648438	6473.470703
1784.480469	6570.824219
1783.312500	6537.606934
1782.144531	6500.121094
1780.976562	6665.875488
1779.806641	6510.742188
1778.638672	6597.312988
1777.468750	6510.664062
1776.298828	6530.934082
1775.128906	6623.869141
1773.958984	6490.243652
1772.789062	6536.146484
1771.619141	6556.396973
1770.449219	6625.767578
1769.279297	6505.045898
1768.107422	6604.294922
1766.937500	6385.413086
1765.765625	6512.396484
1764.593750	6553.970703
1763.421875	6616.868164
1762.250000	6521.870605
1761.078125	6576.219727
1759.906250	6440.740234
1758.734375	6642.214844
1757.560547	6410.830566
1756.388672	6469.423828
1755.214844	6400.122070
1754.042969	6469.351074
1752.869141	6406.463867
1751.695312	6360.639160
1750.521484	6449.006836
1749.347656	6562.897461
1748.173828	6544.746582
1746.998047	6462.741211
1745.824219	6402.046387
1744.648438	6454.154785
1743.474609	6365.822754
1742.298828	6477.482422
1741.123047	6348.765137
1739.947266	6505.046387
1738.771484	6297.699707
1737.595703	6594.238770
1736.419922	6461.337402
1735.244141	6298.729980
1734.066406	6403.892090
1732.890625	6449.536621
1731.712891	6493.040527
1730.535156	6341.156250
1729.357422	6384.663574
1728.181641	6415.418945
1727.001953	6456.775879
1725.824219	6362.298828
1724.646484	6418.502930
1723.468750	6400.437012
1722.289062	6473.583984
1721.111328	6362.201660
1719.931641	6488.338867
1718.751953	6478.752441
1717.572266	6333.511230
1716.392578	6402.367188
1715.212891	6409.750977
1714.033203	6389.590820
1712.853516	6471.110352
1711.671875	6442.474609
1710.492188	6337.619141
1709.310547	6410.637207
1708.130859	6479.395996
1706.949219	6476.174316
1705.767578	6257.117676
1704.585938	6412.609863
1703.404297	6447.476074
1702.222656	6366.007324
1701.039062	6305.712402
1699.857422	6395.548340
1698.673828	6352.179199
1697.492188	6313.051758
1696.308594	6521.175781
1695.125000	6298.220215
1693.941406	6373.192383
1692.757812	6479.819824
1691.574219	6301.330566
1690.390625	6334.036133
1689.205078	6417.394043
1688.021484	6473.285156
1686.835938	6368.776855
1685.652344	6363.469727
1684.466797	6231.591309
1683.281250	6194.670898
1682.095703	6419.257324
1680.910156	6418.161133
1679.724609	6261.065430
1678.539062	6249.457031
1677.351562	6370.617676
1676.166016	6281.034668
1674.978516	6465.348145
1673.791016	6232.550293
1672.605469	6404.172852
1671.417969	6291.482910
1670.230469	6235.672363
1669.042969	6413.520508
1667.853516	6361.916504
1666.666016	6436.578613
1665.478516	6309.251465
1664.289062	6200.898926
1663.099609	6424.867188
1661.912109	6371.201660
1660.722656	6267.097656
1659.533203	6358.514160
1658.343750	6403.663086
1657.154297	6356.340332
1655.962891	6430.886719
1654.773438	6438.189453
1653.583984	6497.994629
1652.392578	6421.289551
1651.201172	6548.259766
1650.011719	6427.490723
1648.820312	6493.551758
1647.628906	6530.212891
1646.437500	6436.782227
1645.244141	6427.291016
1644.052734	6512.182129
1642.861328	6557.201660
1641.667969	6455.443359
1640.476562	6479.494141
1639.283203	6476.290039
1638.089844	6579.958496
1636.896484	6461.503418
1635.703125	6560.949219
1634.509766	6557.732422
1633.316406	6552.422363
1632.121094	6519.895020
1630.927734	6608.794922
1629.732422	6557.431641
1628.539062	6644.201660
1627.343750	6617.957031
1626.148438	6740.249512
1624.953125	6783.019531
1623.757812	6700.300781
1622.562500	6755.607422
1621.367188	6723.093262
1620.169922	6690.590332
1618.974609	6783.486328
1617.777344	6863.813477
1616.580078	6804.144043
1615.384766	6782.091797
1614.187500	6732.898438
1612.990234	6788.122070
1611.791016	6753.557617
1610.593750	6796.234375
1609.396484	6947.416992
1608.197266	6939.967773
1607.000000	6817.778320
1605.800781	6837.469727
1604.601562	6844.640625
1603.404297	6868.490234
1602.205078	6836.041992
1601.005859	6793.182617
1599.804688	6862.877441
1598.605469	6974.223145
1597.406250	6864.693359
1596.205078	6798.944336
1595.005859	6901.912109
1593.804688	6969.445312
1592.603516	6832.925293
1591.402344	6908.772949
1590.201172	6884.695801
1589.000000	6929.295410
1587.798828	6865.692383
1586.595703	6785.470215
1585.394531	6742.711426
1584.191406	6760.270508
1582.990234	6777.823730
1581.787109	6774.583496
1580.583984	6927.222168
1579.380859	6828.367676
1578.177734	6744.090820
1576.974609	7027.525391
1575.771484	6706.470703
1574.566406	6840.299316
1573.363281	6805.906738
1572.158203	6686.414551
1570.953125	6855.461426
1569.750000	6779.579590
1568.544922	6716.172852
1567.339844	6596.776855
1566.134766	6765.722168
1564.927734	6785.299316
1563.722656	6753.034668
1562.515625	6685.539551
1561.310547	6657.447754
1560.103516	6656.305664
1558.898438	6551.565430
1557.691406	6633.306152
1556.484375	6580.386719
1555.277344	6693.157715
1554.068359	6631.963379
1552.861328	6372.051270
1551.654297	6524.125977
1550.445312	6554.048828
1549.238281	6478.435547
1548.029297	6529.042969
1546.820312	6501.033203
1545.611328	6462.692383
1544.402344	6496.734375
1543.193359	6528.696777
1541.984375	6451.097656
1540.773438	6530.589355
1539.564453	6475.744629
1538.353516	6431.248535
1537.142578	6494.177246
1535.933594	6336.105469
1534.722656	6188.412109
1533.511719	6282.316895
1532.300781	6287.430664
1531.087891	6280.159668
1529.876953	6270.827637
1528.666016	6193.416016
1527.453125	6243.920898
1526.242188	6240.786133
1525.029297	6105.682129
1523.816406	6174.730957
1522.603516	6181.915527
1521.390625	6226.194824
1520.177734	6130.336914
1518.962891	6186.971191
1517.750000	6202.387695
1516.537109	6125.118652
1515.322266	6115.829590
1514.107422	6120.955078
1512.892578	6156.956543
1511.679688	6069.456543
1510.464844	6041.662109
1509.248047	6069.428223
1508.033203	6043.700195
1506.818359	6071.455566
1505.601562	6109.482910
1504.386719	5985.071777
1503.169922	5979.931641
1501.953125	5989.180664
1500.736328	6113.503418
1499.519531	6040.541504
1498.302734	6010.743164
1497.085938	6013.817871
1495.869141	5889.570801
1494.650391	6058.973145
1493.433594	5949.130859
1492.214844	5999.420410
1490.998047	5977.867188
1489.779297	5968.631836
1488.560547	5895.805664
1487.341797	5935.812988
1486.123047	6041.429688
1484.902344	5935.821777
1483.683594	5834.350098
1482.462891	5909.184082
1481.244141	5836.441406
1480.023438	5868.220703
1478.802734	5805.752930
1477.582031	5837.526367
1476.361328	5965.539551
1475.140625	5933.799805
1473.919922	5959.392578
1472.699219	5925.617676
1471.476562	5957.341797
1470.255859	6003.377930
1469.033203	5988.023926
1467.810547	5907.221680
1466.587891	5957.332031
1465.365234	5899.054199
1464.142578	5863.284180
1462.919922	5884.759277
1461.697266	5889.876953
1460.472656	5905.209961
1459.250000	5851.075684
1458.025391	5937.900879
1456.800781	5863.356934
1455.576172	5907.269531
1454.351562	5861.337891
1453.126953	5843.999023
1451.902344	5883.810059
1450.677734	5872.594238
1449.451172	5908.305664
1448.226562	5823.655762
1447.000000	5853.244629
1445.775391	5888.940430
1444.548828	5894.041992
1443.322266	5856.335449
1442.095703	5942.962891
1440.869141	5801.337891
1439.640625	5881.832031
1438.414062	5882.855957
1437.185547	5877.769043
1435.958984	5844.175293
1434.730469	5839.096191
1433.501953	5876.766602
1432.273438	5812.661133
1431.044922	5834.042969
1429.816406	5942.903320
1428.587891	5888.989746
1427.359375	5881.873047
1426.128906	5899.160645
1424.900391	5879.845703
1423.669922	5813.782715
1422.439453	5853.429199
1421.208984	6000.762695
1419.978516	5843.284180
1418.748047	5891.029785
1417.517578	5879.858887
1416.287109	5882.906738
1415.054688	5936.711426
1413.824219	5828.098145
1412.591797	5914.367188
1411.359375	5874.791016
1410.126953	5922.472168
1408.894531	6073.594727
1407.662109	5932.598633
1406.429688	5811.929688
1405.197266	5863.643555
1403.962891	5872.767578
1402.730469	5798.788574
1401.496094	5992.331055
1400.261719	5944.695801
1399.029297	5854.535156
1397.794922	5802.889160
1396.560547	5763.411133
1395.324219	5823.158691
1394.089844	5901.104980
1392.855469	5871.750000
1391.619141	5901.091797
1390.384766	5970.890625
1389.148438	5903.101074
1387.912109	5904.104980
1386.675781	5820.171387
1385.439453	5829.276367
1384.203125	5830.291504
1382.966797	5839.391602
1381.728516	5876.780273
1380.492188	5978.813965
1379.253906	5890.912598
1378.015625	5764.664551
1376.779297	5676.830078
1375.541016	5922.187012
1374.302734	5860.600098
1373.062500	5996.843262
1371.824219	5826.286133
1370.585938	5855.545898
1369.345703	5830.325684
1368.107422	5829.318359
1366.867188	5818.228027
1365.626953	5920.057617
1364.386719	5798.073730
1363.146484	5728.539062
1361.906250	5737.625977
1360.666016	5809.173828
1359.425781	5739.672363
1358.183594	5829.323242
1356.943359	5840.399414
1355.701172	5734.683594
1354.458984	5562.567871
1353.216797	5611.928711
1351.974609	5786.049316
1350.732422	5744.805664
1349.490234	5651.267578
1348.246094	5648.279297
1347.003906	5671.436523
1345.759766	5642.304688
1344.517578	5665.454590
1343.273438	5616.232422
1342.029297	5611.242188
1340.785156	5419.377930
1339.541016	5687.655273
1338.296875	5568.157227
1337.050781	5693.721680
1335.806641	5481.894531
1334.560547	5470.908203
1333.316406	5564.306152
1332.070312	5501.127441
1330.824219	5622.580566
1329.578125	5521.293457
1328.332031	5534.379883
1327.085938	5517.377930
1325.837891	5478.323730
1324.591797	5473.365723
1323.345703	5528.546387
1322.097656	5409.341797
1320.849609	5474.532715
1319.601562	5493.620605
1318.353516	5476.644531
1317.105469	5469.688477
1315.857422	5464.736816
1314.609375	5447.773926
1313.359375	5466.848633
1312.111328	5479.912598
1310.861328	5396.919434
1309.611328	5466.010742
1308.361328	5393.050293
1307.111328	5394.116699
1305.861328	5349.189453
1304.611328	5412.242676
1303.361328	5377.322266
1302.109375	5408.369629
1300.859375	5371.463379
1299.607422	5278.626953
1298.355469	5289.698242
1297.103516	5448.563965
1295.851562	5283.872559
1294.599609	5292.939941
1293.347656	5347.917969
1292.095703	5418.843262
1290.841797	5246.288086
1289.589844	5345.139160
1288.335938	5302.320801
1287.082031	5375.199219
1285.830078	5250.629883
1284.576172	5381.311523
1283.322266	5296.653320
1282.066406	5218.003906
1280.812500	5344.637207
1279.558594	5168.376953
1278.302734	5245.172363
1277.046875	5292.065430
1275.792969	5171.664062
1274.537109	5270.320312
1273.281250	5205.704102
1272.025391	5312.281250
1270.767578	5144.198730
1269.511719	5222.893555
1268.255859	5186.180176
1266.998047	5302.630859
1265.740234	5148.586426
1264.484375	5225.236816
1263.226562	5158.728516
1261.968750	5183.672852
1260.710938	5222.519043
1259.453125	5263.338379
1258.193359	5127.338867
1256.935547	5245.623047
1255.675781	5169.249512
1254.417969	5178.280273
1253.158203	5213.115723
1251.898438	5188.393066
1250.638672	5187.492676
1249.378906	5138.973145
1248.119141	5153.951660
1246.857422	5115.371582
1245.597656	5205.707520
1244.335938	5216.701172
1243.076172	5132.533203
1241.814453	5095.964844
1240.552734	5253.620605
1239.291016	5139.768555
1238.029297	5142.838379
1236.767578	5157.791504
1235.503906	5030.151855
1234.242188	5124.320312
1232.978516	5117.491699
1231.714844	5084.933594
1230.453125	5135.504883
1229.189453	5069.317383
1227.925781	5199.005859
1226.662109	5109.094238
1225.396484	5007.348145
1224.132812	5168.615723
1222.869141	5189.464355
1221.603516	5152.984375
1220.337891	5110.587891
1219.072266	5202.567871
1217.808594	5087.081543
1216.542969	5147.429688
1215.275391	5191.957520
1214.009766	4989.652832
1212.744141	5123.031250
1211.476562	4999.762207
1210.210938	5002.840332
1208.943359	5067.085449
1207.675781	4973.482422
1206.408203	5122.526367
1205.140625	4969.781738
1203.873047	5026.100098
1202.605469	5094.227051
1201.335938	4929.739746
1200.068359	5027.421387
1198.798828	4989.109375
1197.531250	4964.601074
1196.261719	5121.316895
1194.992188	5037.711914
1193.722656	5060.464844
1192.453125	4984.773926
1191.181641	4979.970215
1189.912109	4992.880371
1188.640625	5045.139648
1187.371094	5004.915527
1186.099609	5047.318848
1184.828125	5028.741211
1183.556641	4957.079102
1182.285156	4889.374023
1181.013672	5014.323730
1179.742188	4919.117676
1178.468750	4908.437500
1177.197266	4844.715820
1175.923828	4832.087402
1174.650391	4905.875977
1173.376953	4961.965820
1172.103516	4849.198242
1170.830078	4813.021973
1169.556641	4910.312012
1168.283203	4874.137695
1167.007812	4881.137207
1165.734375	4815.557129
1164.458984	4808.835449
1163.183594	4831.528320
1161.908203	4816.963867
1160.632812	4882.770996
1159.357422	4874.081543
1158.082031	4920.260254
1156.806641	4841.038086
1155.529297	4724.625977
1154.253906	4715.969727
1152.976562	4805.221680
1151.699219	4825.920410
1150.421875	4735.038086
1149.144531	4802.711914
1147.867188	4760.783691
1146.589844	4720.826172
1145.312500	4933.215820
1144.033203	4768.074707
1142.753906	4823.950684
1141.476562	4713.627441
1140.197266	4769.492676
1138.917969	4809.703613
1137.638672	4853.808105
1136.359375	4759.185547
1135.078125	4648.968750
1133.798828	4759.479980
1132.519531	4705.928711
1131.238281	4746.107422
1129.957031	4760.895996
1128.675781	4668.338867
1127.394531	4888.022949
1126.113281	4655.005859
1124.832031	4767.330566
1123.550781	4801.604980
1122.267578	4730.569824
1120.986328	4624.466309
1119.703125	4650.949707
1118.419922	4634.547363
1117.136719	4559.692871
1115.853516	4714.757812
1114.570312	4626.279785
1113.287109	4660.528809
1112.003906	4618.824219
1110.718750	4629.700195
1109.435547	4593.854980
1108.150391	4581.376465
1106.865234	4531.930176
1105.580078	4428.026855
1104.294922	4532.294434
1103.009766	4591.794434
1101.724609	4534.602539
1100.437500	4459.932617
1099.152344	4552.458496
1097.865234	4576.929199
1096.580078	4482.859375
1095.292969	4569.503906
1094.005859	4457.984863
1092.718750	4404.769531
1091.431641	4487.498047
1090.142578	4469.241699
1088.855469	4388.875488
1087.566406	4545.312500
1086.279297	4397.045410
1084.990234	4384.637207
1083.701172	4391.630859
1082.412109	4503.350586
1081.123047	4469.600098
1079.833984	4453.309570
1078.542969	4390.502930
1077.253906	4368.416992
1075.962891	4466.479004
1074.673828	4471.510742
1073.382812	4364.191895
1072.091797	4351.809082
1070.800781	4413.013184
1069.509766	4319.312500
1068.218750	4363.079102
1066.925781	4420.377930
1065.634766	4349.944336
1064.341797	4331.772461
1063.048828	4336.818359
1061.757812	4281.908203
1060.464844	4265.690918
1059.171875	4350.012207
1057.876953	4327.988770
1056.583984	4342.693848
1055.291016	4287.829590
1053.996094	4296.740234
1052.703125	4352.007324
1051.408203	4216.054688
1050.113281	4365.933594
1048.818359	4401.852539
1047.523438	4383.709961
1046.228516	4282.585938
1044.931641	4330.077637
1043.636719	4192.340820
1042.339844	4197.395020
1041.042969	4287.305664
1039.748047	4193.998535
1038.451172	4295.445801
1037.154297	4192.531738
1035.857422	4318.998047
1034.558594	4295.119141
1033.261719	4126.754883
1031.962891	4235.829102
1030.666016	4152.273926
1029.367188	4261.305664
1028.068359	4193.176270
1026.769531	4234.790527
1025.470703	4245.597168
1024.171875	4283.338867
1022.873047	4197.937988
1021.572266	4172.197266
1020.273438	4286.860352
1018.972656	4209.194824
1017.671875	4258.444336
1016.371094	4146.210449
1015.070312	4220.437988
1013.769531	4204.326660
1012.468750	4205.512207
1011.167969	4099.127930
1009.865234	4150.264648
1008.562500	4205.223633
1007.261719	4192.968262
1005.958984	4186.475586
1004.656250	4055.238037
1003.353516	4213.792480
1002.050781	4228.402344
1000.746094	4093.389404
999.443359	4257.606934
998.138672	4093.873291
996.835938	4215.854980
995.531250	4259.203613
994.226562	4172.215332
992.921875	4204.059082
991.617188	3998.329102
990.312500	4097.233887
989.005859	4104.176758
987.701172	4164.731934
986.394531	4066.363281
985.089844	4063.736572
983.783203	4177.853027
982.476562	4113.976074
981.169922	4126.647461
979.863281	4154.616211
978.554688	4234.211426
977.248047	4170.368652
975.939453	4074.047852
974.632812	4075.245117
973.324219	4085.997314
972.015625	4144.515625
970.707031	4164.804199
969.398438	4097.219238
968.089844	3976.184082
966.779297	4067.140625
965.470703	4175.247559
964.160156	4142.065918
962.851562	3986.754639
961.541016	4066.196289
960.230469	4092.192139
958.919922	4066.677490
957.609375	3940.094727
956.296875	4013.767822
954.986328	4045.473145
953.675781	3995.204590
952.363281	4101.227051
951.050781	3988.086182
949.738281	3930.233398
948.425781	4013.353516
947.113281	3993.604980
945.800781	4017.657227
944.488281	4056.931396
943.173828	3955.337158
941.861328	3998.414307
940.546875	3952.046143
939.232422	3913.303711
937.917969	4026.742432
936.603516	3948.063232
935.289062	3943.567139
933.974609	4060.742920
932.658203	4012.510742
931.343750	3947.191650
930.027344	3948.398438
928.710938	3919.208740
927.394531	3966.006104
926.078125	3790.592773
924.761719	3858.282471
923.445312	3876.588867
922.128906	3932.850830
920.810547	3953.035400
919.492188	3942.853760
918.175781	3847.306396
916.857422	3785.934082
915.539062	3889.572266
914.220703	3805.460693
912.902344	3874.935303
911.582031	3807.914307
910.263672	3862.202881
908.943359	3942.998779
907.625000	3762.335205
906.304688	3850.696289
904.984375	3800.781738
903.664062	3817.154297
902.343750	3801.338623
901.023438	3904.772461
899.701172	3720.520020
898.380859	3757.707764
897.058594	3709.752930
895.736328	3818.803711
894.416016	3799.221191
893.093750	3804.225586
891.769531	3811.118164
890.447266	3874.711426
889.125000	3821.116455
887.800781	3776.987305
886.478516	3713.982422
885.154297	3785.102539
883.830078	3790.101807
882.505859	3736.568115
881.181641	3764.227295
879.857422	3786.214355
878.533203	3732.708984
877.208984	3720.731445
875.882812	3744.600586
874.556641	3681.699951
873.232422	3714.996094
871.906250	3716.227783
870.580078	3807.944580
869.253906	3792.196045
867.925781	3757.608154
866.599609	3841.732422
865.273438	3756.285400
863.945312	3704.770508
862.617188	3700.352051
861.289062	3780.660889
859.960938	3683.989502
858.632812	3739.804688
857.304688	3699.628418
855.976562	3755.421143
854.646484	3660.702637
853.318359	3774.787354
851.988281	3702.664307
850.658203	3692.611328
849.328125	3660.003906
847.998047	3755.212891
846.667969	3801.530273
845.337891	3744.495850
844.007812	3685.602783
842.675781	3726.273193
841.343750	3817.630127
840.013672	3736.225098
838.681641	3790.004639
837.349609	3736.785156
836.017578	3803.680908
834.683594	3677.306641
833.351562	3626.010742
832.019531	3758.533203
830.685547	3750.369873
829.351562	3646.591797
828.017578	3630.952637
826.685547	3694.035156
825.349609	3639.041748
824.015625	3745.191406
822.681641	3652.744141
821.345703	3676.447510
820.011719	3604.642578
818.675781	3675.150879
817.339844	3650.168213
816.003906	3638.295166
814.667969	3656.365723
813.332031	3593.981201
811.996094	3565.288818
810.660156	3648.820312
809.322266	3687.444580
807.984375	3626.967773
806.648438	3615.112305
805.310547	3649.983887
803.972656	3617.573975
802.634766	3506.708740
801.294922	3584.542480
799.957031	3705.303467
798.617188	3575.808350
797.279297	3577.044189
795.939453	3548.413818
794.599609	3652.298828
793.259766	3558.356689
791.919922	3484.969482
790.580078	3508.603027
789.240234	3573.257080
787.898438	3563.302979
786.558594	3542.166504
785.216797	3498.669922
783.875000	3602.415771
782.533203	3599.916260
781.191406	3483.775635
779.849609	3419.830322
778.507812	3506.755371
777.164062	3513.583984
775.822266	3503.655029
774.478516	3493.729248
773.134766	3491.251221
771.791016	3432.953369
770.447266	3553.269531
769.103516	3437.320312
767.759766	3499.942627
766.414062	3421.230713
765.070312	3398.317627
763.724609	3486.935059
762.378906	3467.735107
761.033203	3316.620117
759.687500	3399.631348
758.341797	3491.900146
756.996094	3452.284424
755.650391	3273.427490
754.302734	3334.110107
752.955078	3329.808594
751.609375	3338.498535
750.261719	3347.185303
748.914062	3365.144531
747.566406	3349.711182
746.216797	3339.846680
744.869141	3448.648682
743.521484	3375.741211
742.171875	3378.851074
740.822266	3244.828125
739.472656	3322.071777
738.125000	3195.515869
736.773438	3326.452881
735.423828	3299.938965
734.074219	3304.909424
732.722656	3241.385254
731.373047	3270.425049
730.021484	3201.377441
728.669922	3295.170166
727.318359	3285.337891
725.966797	3305.101074
724.615234	3335.952393
723.263672	3313.175537
721.910156	3257.132812
720.558594	3297.217041
719.205078	3355.765625
717.851562	3268.336182
716.498047	3186.479248
715.144531	3204.384277
713.791016	3196.430420
712.437500	3221.711914
711.082031	3267.289551
709.728516	3338.689453
708.373047	3264.287109
707.017578	3204.670898
705.664062	3266.820312
704.308594	3227.511475
702.951172	3153.181152
701.595703	3183.964355
700.240234	3312.432129
698.882812	3256.555664
697.525391	3270.719971
696.169922	3236.978516
694.812500	3195.880859
693.455078	3160.322510
692.097656	3168.969238
690.738281	3175.771729
689.380859	3267.243896
688.023438	3180.167236
686.664062	3223.764648
685.304688	3158.802979
683.945312	3195.031006
682.585938	3194.464600
681.226562	3070.702393
679.867188	3154.725098
678.505859	3132.108643
677.146484	3065.393799
675.785156	3116.298584
674.425781	3088.189209
673.064453	3107.846191
671.703125	3175.244141
670.341797	3172.844971
668.978516	3133.729980
667.617188	3250.645264
666.255859	3209.695068
664.892578	3069.678223
663.529297	3069.133789
662.166016	3196.981934
660.802734	3110.223389
659.439453	3084.002197
658.076172	3145.783936
656.712891	3066.411865
655.347656	3012.723389
653.984375	3138.612793
652.619141	3048.292236
651.253906	3144.824951
649.888672	3096.654297
648.523438	3136.385010
647.158203	3066.265137
645.791016	3056.569336
644.425781	3154.844482
643.058594	3055.484131
641.693359	3051.282959
640.326172	3193.401855
638.958984	3042.884766
637.591797	3128.276123
636.222656	3054.600342
634.855469	3055.885498
633.488281	3097.371826
632.119141	3014.605225
630.750000	3065.217529
629.382812	3075.631348
628.013672	3084.215332
626.642578	3122.007812
625.273438	2973.594727
623.904297	2949.340332
622.533203	3069.250488
621.164062	3028.567383
619.792969	3015.260498
618.421875	3089.500000
617.050781	3014.188721
615.679688	2957.135742
614.308594	3034.991211
612.937500	3034.451660
611.564453	3019.334961
610.193359	2991.470459
608.820312	3020.083008
607.447266	2977.658447
606.074219	2929.786377
604.701172	2989.343506
603.328125	3023.396240
601.955078	3024.678711
600.580078	2993.207764
599.207031	3058.168701
597.832031	2988.505371
596.457031	2922.503906
595.082031	2987.442383
593.707031	2919.646240
592.332031	2955.479736
590.955078	2873.174805
589.580078	2987.134033
588.203125	2964.802490
586.828125	2871.641357
585.451172	2907.450684
584.074219	2854.278076
582.697266	2879.185547
581.320312	2938.569824
579.941406	2976.156006
578.564453	2901.235596
577.185547	2889.834717
575.806641	2824.024902
574.429688	2819.895264
573.050781	2832.085205
571.671875	2827.955322
570.291016	2903.575439
568.912109	2801.578369
567.531250	2795.644043
566.152344	2860.360107
564.771484	2801.893066
563.390625	2861.152344
562.009766	2849.779541
560.628906	2827.549316
559.248047	2839.715088
557.867188	2784.922119
556.484375	2809.755371
555.103516	2791.165771
553.720703	2801.520020
552.337891	2703.373779
550.955078	2798.713867
549.572266	2778.331055
548.189453	2696.507080
546.804688	2771.919922
545.421875	2762.392578
544.037109	2803.446289
542.652344	2737.929688
541.269531	2654.379395
539.884766	2717.094482
538.498047	2687.729248
537.113281	2775.682129
535.728516	2668.726807
534.341797	2686.291992
532.957031	2711.065918
531.570312	2643.854736
530.183594	2628.958252
528.796875	2724.038086
527.410156	2696.515137
526.023438	2622.145508
524.634766	2666.723877
523.248047	2644.629883
521.859375	2667.573730
520.470703	2681.504883
519.083984	2650.416992
517.695312	2673.347168
516.304688	2694.469238
514.916016	2650.798340
513.527344	2644.927490
512.136719	2775.778809
510.748047	2678.157471
509.357422	2605.747070
507.966797	2695.181396
506.576172	2732.451416
505.185547	2699.611328
503.792969	2668.580078
502.402344	2626.779541
501.009766	2608.346680
499.619141	2607.881104
498.226562	2618.189941
496.833984	2639.267578
495.441406	2624.435303
494.048828	2606.019043
492.654297	2634.264893
491.261719	2579.970215
489.867188	2590.272461
488.474609	2609.538330
487.080078	2628.797119
485.685547	2590.677490
484.291016	2536.438477
482.896484	2641.726074
481.500000	2528.364746
480.105469	2531.496094
478.708984	2577.616455
477.314453	2487.609131
475.917969	2594.601562
474.521484	2526.106689
473.125000	2570.404541
471.728516	2562.786377
470.330078	2539.067139
468.933594	2551.136230
467.535156	2625.805420
466.136719	2532.340576
464.740234	2580.165283
463.341797	2508.194580
461.941406	2500.596436
460.542969	2475.129883
459.144531	2510.422852
457.744141	2467.098877
456.345703	2504.166748
454.945312	2509.076172
453.544922	2571.120117
452.144531	2513.534424
450.744141	2520.224121
449.343750	2478.729004
447.941406	2508.617188
446.541016	2477.842041
445.138672	2475.615234
443.736328	2439.506836
442.333984	2508.605225
440.931641	2481.416992
439.529297	2488.102295
438.126953	2471.618896
436.722656	2451.578369
435.320312	2467.171631
433.916016	2470.292236
432.511719	2403.963623
431.107422	2405.313477
429.703125	2435.144287
428.298828	2388.434570
426.894531	2432.492920
425.488281	2462.302490
424.083984	2436.958252
422.677734	2441.857422
421.271484	2494.765137
419.865234	2428.537842
418.458984	2456.543457
417.052734	2431.222412
415.646484	2393.472412
414.238281	2419.692139
412.830078	2385.509766
411.423828	2367.323242
410.015625	2347.367188
408.607422	2368.250244
407.199219	2325.226318
405.789062	2399.345703
404.380859	2319.070068
402.970703	2355.909180
401.562500	2387.413574
400.152344	2317.823486
398.742188	2383.011719
397.332031	2254.946045
395.921875	2359.115723
394.511719	2238.188721
393.099609	2243.102783
391.689453	2286.987793
390.277344	2380.449707
388.865234	2305.647217
387.453125	2213.166016
386.041016	2249.943604
384.628906	2300.867188
383.216797	2231.440918
381.802734	2262.887451
380.390625	2292.553467
378.976562	2346.969727
377.562500	2266.974854
376.148438	2227.672363
374.734375	2313.888672
373.320312	2209.199463
371.904297	2245.910889
370.490234	2259.641846
369.074219	2278.666748
367.658203	2345.369385
366.242188	2306.101318
364.826172	2277.440186
363.410156	2209.956055
361.994141	2228.972412
360.578125	2205.633789
359.160156	2215.822998
357.742188	2176.619873
356.326172	2169.175049
354.908203	2174.075195
353.490234	2194.839844
352.070312	2141.567627
350.652344	2208.150146
349.234375	2207.753418
347.814453	2163.315674
346.394531	2173.495117
344.974609	2187.192871
343.554688	2137.500244
342.134766	2145.918213
340.714844	2145.532715
339.294922	2057.159180
337.873047	2176.431885
336.453125	2156.690430
335.031250	2112.332520
333.609375	2096.126465
332.187500	2123.880859
330.765625	2097.131104
329.341797	2121.359863
327.919922	2070.018799
326.496094	2032.751587
325.074219	2048.195557
323.650391	2061.877686
322.226562	1996.536133
320.802734	2040.068604
319.378906	2043.212402
317.953125	2055.130127
316.529297	2089.854736
315.103516	2045.619263
313.679688	2090.857422
312.253906	2101.003906
310.828125	1984.898682
309.402344	2061.679443
307.974609	2068.319824
306.548828	2018.877686
305.121094	1978.214355
303.695312	1941.069214
302.267578	2026.546143
300.839844	2036.688965
299.412109	1948.776367
297.984375	1993.941406
296.556641	1963.827637
295.126953	1986.223999
293.699219	1945.624268
292.269531	1971.514282
290.839844	1990.398804
289.410156	1955.066162
287.980469	1891.771729
286.550781	1936.881470
285.119141	1934.785034
283.689453	1964.143433
282.257812	1942.824097
280.828125	1909.284546
279.396484	1921.166260
277.964844	1859.703247
276.531250	1876.827271
275.099609	1855.542358
273.667969	1925.018433
272.234375	1842.659424
270.802734	1885.943237
269.369141	1922.234009
267.935547	1873.055786
266.501953	1836.100952
265.066406	1854.947144
263.632812	1833.696289
262.199219	1840.336792
260.763672	1846.974854
259.328125	1841.415649
257.892578	1797.538818
256.457031	1790.248901
255.021484	1796.890869
253.585938	1794.826172
252.150391	1791.021484
250.712891	1811.581421
249.275391	1802.555176
247.839844	1812.667847
246.402344	1774.076660
244.964844	1829.404053
243.525391	1823.858154
242.087891	1802.669067
240.650391	1811.034058
239.210938	1789.854736
237.771484	1716.560791
236.332031	1829.162354
234.892578	1788.886475
233.453125	1743.415527
232.013672	1796.921875
230.574219	1774.031738
229.132812	1761.562866
227.693359	1820.242432
226.251953	1807.769653
224.810547	1790.097534
223.369141	1711.731934
221.927734	1716.624878
220.484375	1785.661133
219.042969	1716.005249
217.599609	1795.414795
216.156250	1741.376587
214.714844	1730.667725
213.271484	1792.710449
211.826172	1681.553223
210.382812	1653.546143
208.939453	1693.064087
207.494141	1706.604980
206.050781	1638.806396
204.605469	1648.891724
203.160156	1747.198120
201.714844	1656.944092
200.269531	1634.164185
198.822266	1658.074463
197.376953	1656.046265
195.929688	1652.290405
194.484375	1648.535889
193.037109	1608.500610
191.589844	1696.307373
190.142578	1554.379639
188.693359	1590.361084
187.246094	1683.302734
185.796875	1641.570801
184.349609	1670.613403
182.900391	1578.858398
181.451172	1626.879028
180.001953	1623.135132
178.552734	1593.523682
177.101562	1607.029785
175.652344	1606.739258
174.201172	1573.699219
172.750000	1568.244629
171.300781	1595.529541
169.849609	1569.400269
168.396484	1576.005981
166.945312	1584.331421
165.494141	1577.157715
164.041016	1563.100708
162.589844	1586.914185
161.136719	1535.001465
159.683594	1543.326538
158.230469	1525.844971
156.775391	1532.448608
155.322266	1518.414429
153.869141	1509.543213
152.414062	1523.021851
150.958984	1471.186035
149.503906	1402.185181
148.048828	1499.860352
146.593750	1453.209839
145.138672	1490.730347
143.681641	1497.328857
142.226562	1426.668701
140.769531	1464.173340
139.312500	1426.152100
137.855469	1439.620850
136.398438	1442.791260
134.941406	1373.919800
133.484375	1467.992920
132.025391	1428.290527
130.566406	1410.888550
129.109375	1396.920898
127.650391	1324.692383
126.191406	1406.695190
124.730469	1343.056274
123.271484	1365.078979
121.812500	1381.956299
120.351562	1366.296509
118.890625	1355.777954
117.429688	1418.858887
115.968750	1372.398804
114.507812	1315.689941
113.046875	1375.322510
111.585938	1342.577759
110.123047	1308.134766
108.660156	1207.027100
107.199219	1182.877197
105.736328	1085.246948
104.273438	1062.836548
102.808594	1040.434204
101.345703	968.504456
99.880859	1002.485046
