#Wave		#Intensity
2199.140625	851.411499
2198.041016	755.798401
2196.943359	810.298523
2195.845703	807.886841
2194.746094	798.649902
2193.646484	773.491150
2192.548828	800.656494
2191.449219	755.037964
2190.349609	789.018738
2189.250000	779.792542
2188.150391	854.672852
2187.050781	779.530823
2185.949219	833.935303
2184.849609	772.453491
2183.748047	767.780762
2182.648438	760.838379
2181.546875	828.834045
2180.445312	835.506104
2179.343750	821.745789
2178.244141	810.259705
2177.140625	807.854431
2176.039062	757.803589
2174.937500	782.629822
2173.835938	814.251953
2172.732422	791.437927
2171.630859	734.621338
2170.527344	797.973145
2169.423828	766.106873
2168.322266	768.244446
2167.218750	779.444580
2166.115234	801.968201
2165.011719	790.508179
2163.906250	754.140442
2162.802734	799.299927
2161.699219	787.846008
2160.593750	756.024109
2159.490234	771.739258
2158.384766	776.135193
2157.279297	780.529663
2156.173828	755.516235
2155.068359	748.604370
2153.962891	750.739929
2152.857422	755.135559
2151.751953	777.613708
2150.646484	811.384949
2149.539062	799.949890
2148.433594	761.406250
2147.326172	792.904114
2146.218750	831.167236
2145.111328	761.022522
2144.003906	695.417053
2142.896484	760.766724
2141.789062	803.523560
2140.681641	812.415344
2139.574219	767.152222
2138.464844	791.838745
2137.357422	773.661072
2136.248047	735.192749
2135.140625	795.949097
2134.031250	752.981079
2132.921875	827.238281
2131.812500	761.742615
2130.703125	766.121155
2129.593750	790.774414
2128.484375	752.348328
2127.373047	767.986938
2126.263672	790.375610
2125.152344	817.259521
2124.042969	718.077026
2122.931641	726.958862
2121.820312	796.594910
2120.708984	778.461792
2119.597656	769.332825
2118.486328	843.424805
2117.375000	744.337769
2116.263672	780.186584
2115.150391	789.047302
2114.039062	768.686035
2112.925781	777.545654
2111.814453	779.661743
2110.701172	772.791077
2109.587891	763.676636
2108.474609	774.776794
2107.361328	785.873230
2106.248047	749.821411
2105.132812	731.738464
2104.019531	751.813293
2102.906250	771.881348
2101.791016	742.586426
2100.675781	762.649231
2099.562500	778.219788
2098.447266	728.757568
2097.332031	735.360718
2096.216797	735.236938
2095.101562	759.766418
2093.986328	804.454956
2092.869141	788.636414
2091.753906	757.142700
2090.636719	804.048706
2089.521484	788.238159
2088.404297	743.326721
2087.287109	756.632935
2086.169922	684.883728
2085.052734	754.140320
2083.935547	729.401611
2082.818359	776.256897
2081.701172	729.156006
2080.582031	800.594727
2079.464844	764.685181
2078.345703	746.671997
2077.228516	773.368286
2076.109375	771.003235
2074.990234	757.466858
2073.871094	694.786133
2072.751953	772.847290
2071.632812	739.217834
2070.513672	736.860352
2069.392578	781.386902
2068.273438	799.112549
2067.152344	749.878662
2066.033203	776.529236
2064.912109	767.474243
2063.791016	740.577087
2062.669922	758.294495
2061.548828	740.327515
2060.427734	742.432251
2059.306641	704.411560
2058.185547	717.665527
2057.062500	771.026123
2055.941406	750.843933
2054.818359	730.668579
2053.695312	786.227234
2052.574219	770.506409
2051.451172	730.299133
2050.328125	727.949829
2049.205078	721.149841
2048.082031	767.761536
2046.957031	760.957031
2045.833984	765.278015
2044.708984	722.887817
2043.585938	751.676575
2042.460938	727.091125
2041.335938	733.637939
2040.212891	780.192383
2039.087891	764.504028
2037.962891	708.824585
2036.835938	710.926697
2035.710938	759.674744
2034.585938	786.197327
2033.458984	761.638977
2032.333984	734.868774
2031.207031	763.601807
2030.080078	772.350586
2028.955078	705.649597
2027.828125	787.620544
2026.701172	747.558716
2025.574219	729.689392
2024.445312	742.871399
2023.318359	764.917603
2022.191406	718.236145
2021.062500	753.577454
2019.933594	757.882324
2018.806641	768.832703
2017.677734	695.598633
2016.548828	768.573181
2015.419922	713.080078
2014.291016	741.743835
2013.162109	721.694519
2012.031250	743.706848
2010.902344	763.498657
2009.773438	739.030457
2008.642578	714.570435
2007.511719	734.357117
2006.382812	800.579468
2005.251953	720.842102
2004.121094	760.514771
2002.990234	767.017639
2001.857422	733.737305
2000.726562	757.919861
1999.595703	753.373291
1998.462891	706.858459
1997.332031	713.364746
1996.199219	786.114441
1995.066406	730.786316
1993.933594	750.529846
1992.802734	706.261719
1991.667969	737.036133
1990.535156	758.974854
1989.402344	758.846619
1988.269531	732.251465
1987.134766	747.564209
1986.001953	685.702637
1984.867188	742.902710
1983.732422	700.899536
1982.599609	731.633057
1981.464844	740.322815
1980.330078	726.979919
1979.193359	748.882996
1978.058594	713.520874
1976.923828	733.216919
1975.787109	713.279663
1974.652344	686.745789
1973.515625	724.042236
1972.380859	772.327881
1971.244141	710.597534
1970.107422	701.678955
1968.970703	747.744507
1967.833984	747.618103
1966.695312	718.911133
1965.558594	782.535461
1964.421875	738.447937
1963.283203	711.954346
1962.146484	645.923401
1961.007812	709.516968
1959.869141	700.611877
1958.730469	729.040161
1957.591797	689.397278
1956.453125	698.061279
1955.314453	715.501526
1954.175781	640.770264
1953.035156	684.542847
1951.896484	660.296631
1950.755859	752.303772
1949.615234	688.581360
1948.476562	734.508728
1947.335938	719.039124
1946.195312	749.602966
1945.054688	725.370178
1943.914062	705.527710
1942.771484	696.645508
1941.630859	672.433899
1940.488281	705.169617
1939.347656	737.894226
1938.205078	748.715515
1937.062500	713.567078
1935.919922	702.503906
1934.777344	750.523499
1933.634766	715.392578
1932.492188	654.024963
1931.349609	704.215393
1930.207031	706.282776
1929.062500	664.624207
1927.919922	664.511719
1926.775391	703.738586
1925.630859	673.027283
1924.486328	657.619873
1923.341797	613.820251
1922.197266	701.078064
1921.052734	672.571594
1919.908203	707.390564
1918.761719	689.807251
1917.617188	672.229919
1916.470703	641.565369
1915.326172	661.093140
1914.179688	691.521545
1913.033203	687.042236
1911.886719	676.022278
1910.740234	651.923889
1909.593750	715.032837
1908.447266	721.450562
1907.298828	716.969849
1906.152344	640.587891
1905.003906	649.193359
1903.857422	629.480164
1902.708984	670.751038
1901.560547	637.976440
1900.412109	648.753479
1899.263672	707.413208
1898.115234	715.998474
1896.964844	678.886536
1895.816406	691.824768
1894.667969	637.328003
1893.517578	700.289490
1892.367188	689.298584
1891.218750	630.481689
1890.068359	728.191650
1888.917969	697.641418
1887.767578	682.312378
1886.617188	695.232300
1885.464844	656.014221
1884.314453	677.621643
1883.164062	660.134766
1882.011719	673.049622
1880.859375	692.472351
1879.708984	648.947083
1878.556641	670.537231
1877.404297	635.709045
1876.251953	665.971252
1875.099609	689.716431
1873.945312	646.228394
1872.792969	678.641541
1871.640625	719.714905
1870.486328	684.913635
1869.332031	617.617981
1868.179688	667.347595
1867.025391	602.244019
1865.871094	654.125305
1864.716797	675.670410
1863.562500	645.242371
1862.406250	658.122131
1861.251953	664.503967
1860.095703	709.838135
1858.941406	627.494324
1857.785156	672.819336
1856.630859	646.748657
1855.474609	687.729675
1854.318359	696.262146
1853.162109	637.771667
1852.003906	639.824951
1850.847656	620.265503
1849.691406	652.572754
1848.533203	645.980591
1847.376953	619.949646
1846.218750	632.802856
1845.060547	684.520264
1843.904297	662.814026
1842.746094	675.653259
1841.585938	602.157349
1840.427734	647.371094
1839.269531	707.672180
1838.111328	629.893860
1836.951172	677.236572
1835.792969	651.244263
1834.632812	670.538330
1833.472656	672.580139
1832.312500	713.417358
1831.152344	696.056335
1829.992188	650.691345
1828.832031	659.197754
1827.671875	626.777649
1826.509766	669.741333
1825.349609	620.105286
1824.187500	680.277649
1823.027344	634.961426
1821.865234	654.221924
1820.703125	623.987244
1819.541016	707.782471
1818.378906	651.737549
1817.216797	662.379700
1816.052734	647.215576
1814.890625	666.454224
1813.728516	640.547119
1812.564453	672.675049
1811.400391	627.436829
1810.238281	668.149597
1809.074219	605.743225
1807.910156	646.445801
1806.746094	624.862976
1805.580078	605.434326
1804.416016	671.874939
1803.251953	588.058838
1802.085938	658.771423
1800.921875	656.513916
1799.755859	660.692505
1798.589844	645.566956
1797.423828	651.890259
1796.257812	641.059387
1795.091797	683.823242
1793.925781	642.984558
1792.757812	690.019409
1791.591797	662.048828
1790.423828	646.940857
1789.257812	674.674561
1788.089844	661.710999
1786.921875	642.328552
1785.753906	603.686096
1784.585938	648.531067
1783.417969	597.060669
1782.250000	603.377991
1781.082031	628.946594
1779.912109	643.811951
1778.744141	647.979492
1777.574219	643.592834
1776.404297	624.242920
1775.234375	615.586853
1774.066406	579.151550
1772.894531	688.026001
1771.724609	576.817993
1770.554688	694.199768
1769.384766	627.876892
1768.212891	661.934326
1767.042969	683.170715
1765.871094	612.614441
1764.699219	700.011536
1763.527344	710.561462
1762.355469	644.303345
1761.183594	633.528198
1760.011719	641.951172
1758.839844	650.371338
1757.667969	631.072571
1756.494141	609.648682
1755.322266	682.008179
1754.148438	645.666504
1752.974609	696.689697
1751.800781	583.671143
1750.626953	611.259399
1749.453125	602.637451
1748.279297	613.180237
1747.105469	583.273499
1745.929688	636.383423
1744.755859	578.818726
1743.580078	610.634827
1742.404297	602.021606
1741.230469	625.315186
1740.054688	612.449219
1738.878906	612.344849
1737.703125	684.518860
1736.525391	639.767273
1735.349609	584.405396
1734.173828	628.925476
1732.996094	635.191406
1731.818359	622.338989
1730.642578	649.840515
1729.464844	617.880188
1728.287109	647.495972
1727.109375	577.340576
1725.931641	611.197571
1724.751953	640.799316
1723.574219	632.204041
1722.396484	625.732849
1721.216797	600.176941
1720.037109	623.399048
1718.859375	593.612122
1717.679688	621.066711
1716.500000	593.409668
1715.320312	690.780518
1714.140625	574.139832
1712.958984	633.352539
1711.779297	582.415466
1710.597656	626.783875
1709.417969	633.028442
1708.236328	582.117432
1707.054688	588.367432
1705.875000	675.025818
1704.693359	594.513733
1703.509766	609.219727
1702.328125	596.425842
1701.146484	600.553284
1699.964844	625.821960
1698.781250	627.829102
1697.597656	640.403137
1696.416016	574.785217
1695.232422	623.281982
1694.048828	595.713623
1692.865234	616.732910
1691.681641	587.063293
1690.496094	610.188232
1689.312500	593.195923
1688.128906	607.869263
1686.943359	597.213989
1685.757812	626.651062
1684.574219	573.804688
1683.388672	634.873962
1682.203125	565.173279
1681.017578	632.548645
1679.832031	592.386047
1678.644531	623.901489
1677.458984	625.902344
1676.273438	613.153076
1675.085938	579.341248
1673.898438	612.943604
1672.710938	574.931335
1671.525391	583.255615
1670.337891	625.261047
1669.148438	564.112244
1667.960938	589.270325
1666.773438	612.315552
1665.585938	568.030762
1664.396484	586.864807
1663.207031	601.486206
1662.019531	626.616333
1660.830078	637.021118
1659.640625	605.381897
1658.451172	580.058533
1657.261719	592.567200
1656.070312	596.667786
1654.880859	596.565796
1653.691406	600.664246
1652.500000	615.260620
1651.308594	594.160400
1650.119141	612.951111
1648.927734	619.142700
1647.736328	593.855652
1646.544922	572.773376
1645.351562	629.313660
1644.160156	614.524597
1642.968750	585.061584
1641.775391	589.154785
1640.583984	620.498169
1639.390625	553.322632
1638.197266	607.712585
1637.003906	595.037415
1635.810547	599.125305
1634.617188	569.700012
1633.423828	573.790833
1632.230469	538.098572
1631.035156	581.968140
1629.841797	609.078247
1628.646484	592.232483
1627.451172	569.115479
1626.255859	514.626648
1625.060547	548.004517
1623.865234	539.545654
1622.669922	566.635071
1621.474609	591.624634
1620.277344	591.523376
1619.082031	568.434021
1617.884766	580.873535
1616.689453	597.487061
1615.492188	532.633301
1614.294922	580.575317
1613.097656	584.651978
1611.900391	578.288818
1610.703125	578.189819
1609.503906	555.134155
1608.306641	548.779236
1607.107422	584.151611
1605.910156	573.622131
1604.710938	546.411865
1603.511719	552.573792
1602.312500	531.630920
1601.113281	544.046692
1599.914062	573.131042
1598.714844	591.786682
1597.513672	622.936340
1596.314453	579.085693
1595.113281	599.813354
1593.912109	543.487732
1592.712891	549.640564
1591.511719	562.036072
1590.310547	591.077393
1589.109375	584.733398
1587.906250	615.841370
1586.705078	528.367920
1585.503906	559.474854
1584.300781	567.696899
1583.097656	526.017212
1581.896484	523.848267
1580.693359	548.699341
1579.490234	548.605286
1578.287109	571.365906
1577.083984	565.035950
1575.878906	594.016846
1574.675781	577.302002
1573.470703	554.364075
1572.267578	556.344910
1571.062500	562.476196
1569.857422	591.432556
1568.652344	541.534851
1567.447266	533.144043
1566.242188	564.164612
1565.037109	584.805664
1563.832031	586.778748
1562.625000	559.728271
1561.419922	551.341431
1560.212891	540.885071
1559.005859	557.368286
1557.798828	522.054688
1556.591797	559.248352
1555.384766	542.584961
1554.177734	552.844727
1552.970703	536.188110
1551.761719	571.283875
1550.554688	533.934570
1549.345703	593.848572
1548.138672	527.544922
1546.929688	581.234070
1545.720703	576.998169
1544.511719	556.221741
1543.302734	533.385071
1542.091797	541.561584
1540.882812	560.068726
1539.673828	547.574646
1538.462891	533.018921
1537.251953	553.583496
1536.042969	532.835938
1534.832031	485.251709
1533.621094	549.169312
1532.410156	528.433105
1531.197266	520.087036
1529.986328	544.759521
1528.775391	559.107849
1527.562500	536.321350
1526.351562	521.792297
1525.138672	486.647552
1523.925781	575.217590
1522.712891	538.014343
1521.500000	531.738892
1520.287109	552.254089
1519.074219	543.918030
1517.859375	562.364075
1516.646484	554.029114
1515.431641	527.163879
1514.216797	516.778870
1513.003906	533.158325
1511.789062	543.357544
1510.574219	532.975098
1509.359375	506.136444
1508.142578	575.991272
1506.927734	464.827332
1505.712891	485.311493
1504.496094	534.573303
1503.279297	565.316895
1502.064453	538.500244
1500.847656	521.967712
1499.630859	519.823364
1498.414062	519.734009
1497.195312	540.183960
1495.978516	529.823181
1494.761719	513.306274
1493.542969	533.746765
1492.326172	511.077271
1491.107422	570.502197
1489.888672	496.538818
1488.669922	562.100159
1487.451172	508.674683
1486.232422	514.739441
1485.013672	498.247711
1483.792969	512.512390
1482.574219	553.418152
1481.353516	532.829468
1480.132812	491.757996
1478.914062	534.694824
1477.693359	536.651123
1476.472656	487.408356
1475.251953	530.323730
1474.029297	550.704773
1472.808594	526.047485
1471.587891	536.189575
1470.365234	544.281982
1469.142578	478.722046
1467.921875	515.458130
1466.699219	525.594971
1465.476562	488.698730
1464.253906	504.969910
1463.029297	478.310211
1461.806641	545.670227
1460.583984	496.535736
1459.359375	488.278259
1458.134766	496.364807
1456.912109	557.548401
1455.687500	537.032898
1454.462891	530.815613
1453.238281	524.600464
1452.013672	551.041748
1450.787109	536.663086
1449.562500	493.726593
1448.335938	483.442352
1447.111328	507.832977
1445.884766	497.549805
1444.658203	550.472534
1443.431641	521.839661
1442.205078	483.026123
1440.978516	527.773071
1439.751953	503.233521
1438.525391	543.887451
1437.296875	509.170166
1436.070312	492.791809
1434.841797	513.066650
1433.613281	504.835754
1432.384766	508.819305
1431.156250	547.395203
1429.927734	510.678528
1428.699219	492.282471
1427.468750	471.858887
1426.240234	534.816772
1425.009766	508.293335
1423.781250	485.844666
1422.550781	510.150574
1421.320312	499.902008
1420.089844	568.896057
1418.859375	518.012451
1417.628906	483.394928
1416.396484	519.864563
1415.166016	531.957092
1413.935547	493.294983
1412.703125	499.298920
1411.470703	509.359406
1410.238281	476.808044
1409.005859	499.040619
1407.773438	509.095917
1406.541016	519.147705
1405.308594	523.113281
1404.074219	516.941345
1402.841797	537.120911
1401.607422	464.073456
1400.373047	496.412140
1399.140625	494.300659
1397.906250	508.393677
1396.671875	500.205475
1395.435547	528.466003
1394.201172	502.057251
1392.966797	540.428040
1391.730469	473.551819
1390.496094	489.657104
1389.259766	479.457428
1388.023438	495.556091
1386.787109	491.425903
1385.550781	505.494934
1384.314453	432.628967
1383.078125	507.341675
1381.839844	497.149414
1380.603516	442.507843
1379.365234	476.775421
1378.128906	468.613556
1376.890625	476.610779
1375.652344	498.739532
1374.414062	551.143250
1373.175781	522.789185
1371.935547	484.354187
1370.697266	504.448456
1369.458984	504.361328
1368.218750	463.932251
1366.978516	482.002838
1365.740234	489.985168
1364.500000	534.253662
1363.259766	473.690277
1362.019531	515.930847
1360.777344	447.331512
1359.537109	495.606018
1358.294922	525.735046
1357.054688	493.420776
1355.812500	531.594177
1354.570312	497.276764
1353.330078	491.152069
1352.087891	460.878632
1350.843750	513.116760
1349.601562	504.980560
1348.359375	533.054626
1347.115234	506.817139
1345.873047	516.783691
1344.628906	462.411285
1343.384766	486.452972
1342.142578	488.378632
1340.898438	512.407471
1339.654297	448.027893
1338.408203	462.011627
1337.164062	496.074493
1335.919922	479.924286
1334.673828	477.833588
1333.427734	493.809784
1332.183594	491.717377
1330.937500	511.698944
1329.691406	465.465179
1328.445312	477.420471
1327.197266	475.332245
1325.951172	463.218353
1324.705078	471.157928
1323.457031	479.094727
1322.208984	481.016052
1320.962891	472.917267
1319.714844	484.856689
1318.466797	434.692932
1317.218750	490.697418
1315.970703	478.597473
1314.720703	516.555542
1313.472656	474.428192
1312.222656	468.341705
1310.974609	444.247253
1309.724609	498.191071
1308.474609	494.103973
1307.224609	480.017914
1305.974609	445.939423
1304.724609	467.855408
1303.472656	493.761871
1302.222656	469.692108
1300.972656	451.625671
1299.720703	455.543457
1298.468750	483.431671
1297.216797	509.312927
1295.964844	461.297668
1294.712891	463.214386
1293.460938	497.070709
1292.208984	435.111023
1290.955078	458.982544
1289.703125	450.922119
1288.449219	488.746796
1287.195312	448.771332
1285.943359	484.589050
1284.689453	436.652740
1283.433594	486.414642
1282.179688	428.528809
1280.925781	456.353882
1279.671875	476.199463
1278.416016	420.337555
1277.160156	448.149567
1275.906250	452.054749
1274.650391	457.949615
1273.394531	511.620239
1272.138672	441.867706
1270.880859	441.791107
1269.625000	437.735107
1268.369141	479.435760
1267.111328	449.517426
1265.855469	461.371490
1264.597656	497.081329
1263.339844	447.295624
1262.082031	417.403503
1260.824219	463.038818
1259.566406	456.997681
1258.306641	464.864807
1257.048828	482.660492
1255.789062	428.957123
1254.531250	454.695099
1253.271484	428.808319
1252.011719	454.537354
1250.751953	462.396637
1249.492188	490.095093
1248.232422	446.365417
1246.970703	485.958008
1245.710938	477.941040
1244.449219	436.219025
1243.189453	475.792725
1241.927734	453.906769
1240.666016	469.682220
1239.404297	467.619263
1238.142578	435.840607
1236.880859	419.918945
1235.617188	429.748077
1234.355469	483.135162
1233.091797	423.659729
1231.830078	417.648041
1230.566406	459.135193
1229.302734	431.353851
1228.039062	425.343903
1226.775391	445.050049
1225.511719	442.995117
1224.246094	444.895477
1222.982422	448.772156
1221.716797	434.857819
1220.453125	428.853455
1219.187500	416.923309
1217.921875	474.143188
1216.656250	395.050690
1215.390625	438.430084
1214.125000	491.667236
1212.857422	434.329315
1211.591797	463.862061
1210.324219	483.516846
1209.058594	436.076141
1207.791016	436.000366
1206.523438	463.539734
1205.255859	439.793182
1203.988281	437.744904
1202.718750	461.326599
1201.451172	441.535034
1200.183594	451.312256
1198.914062	455.174713
1197.644531	459.035797
1196.375000	427.439728
1195.105469	431.304260
1193.835938	458.796417
1192.566406	395.716949
1191.296875	456.668488
1190.027344	427.068237
1188.755859	446.671112
1187.484375	452.495544
1186.214844	450.449829
1184.943359	460.204926
1183.671875	430.629700
1182.400391	458.078857
1181.128906	446.205200
1179.855469	426.474365
1178.583984	436.225067
1177.310547	438.113831
1176.039062	459.644836
1174.765625	381.006775
1173.492188	412.358246
1172.218750	435.845703
1170.945312	461.287933
1169.671875	469.057983
1168.398438	414.033539
1167.123047	417.885284
1165.849609	435.466583
1164.574219	402.050049
1163.298828	433.354126
1162.023438	425.436554
1160.748047	429.282867
1159.472656	427.248291
1158.197266	450.688080
1156.921875	395.752777
1155.644531	438.778168
1154.369141	419.116852
1153.091797	415.127563
1151.814453	464.000488
1150.537109	395.408325
1149.259766	446.224762
1147.982422	440.276672
1146.705078	403.027557
1145.427734	408.825653
1144.148438	432.223602
1142.871094	436.059174
1141.591797	430.117950
1140.312500	451.545166
1139.033203	418.241699
1137.753906	445.525665
1136.474609	410.281067
1135.195312	435.603516
1133.914062	392.560760
1132.634766	343.674896
1131.353516	411.947540
1130.072266	423.587830
1128.791016	429.369049
1127.511719	454.661591
1126.228516	456.533356
1124.947266	442.799164
1123.666016	421.268494
1122.384766	419.245056
1121.101562	391.877045
1119.818359	415.200287
1118.537109	393.689362
1117.253906	459.873718
1115.970703	391.603821
1114.687500	420.754608
1113.402344	424.576416
1112.119141	432.291412
1110.835938	377.702271
1109.550781	447.713257
1108.265625	432.065247
1106.982422	402.801361
1105.697266	437.751221
1104.412109	390.989532
1103.126953	427.874084
1101.839844	390.853119
1100.554688	445.222626
1099.267578	414.043091
1097.982422	412.027344
1096.695312	429.444092
1095.408203	415.769226
1094.121094	382.674042
1092.833984	369.012085
1091.546875	407.784271
1090.259766	405.771606
1088.970703	394.053864
1087.683594	386.221832
1086.394531	393.916290
1085.107422	403.548218
1083.818359	391.838959
1082.529297	378.194336
1081.240234	385.884796
1079.949219	366.429596
1078.660156	377.996277
1077.371094	381.806488
1076.080078	362.362152
1074.789062	391.360260
1073.500000	375.795197
1072.208984	366.045807
1070.917969	400.837280
1069.626953	371.726166
1068.333984	352.303864
1067.042969	354.177734
1065.750000	402.492340
1064.458984	375.335907
1063.166016	386.876648
1061.873047	392.611176
1060.580078	425.415588
1059.287109	392.473969
1057.994141	380.807190
1056.701172	378.807953
1055.406250	407.727081
1054.113281	396.063721
1052.818359	374.746002
1051.525391	411.376007
1050.230469	378.477020
1048.935547	397.717529
1047.640625	368.693024
1046.343750	401.438446
1045.048828	432.242737
1043.753906	403.227386
1042.457031	374.222198
1041.160156	379.942688
1039.865234	366.378082
1038.568359	397.161530
1037.271484	373.960480
1035.974609	391.240723
1034.675781	379.610535
1033.378906	381.470764
1032.080078	398.740570
1030.783203	394.818939
1029.484375	346.609650
1028.185547	377.353363
1026.886719	390.761871
1025.587891	384.919708
1024.289062	359.836945
1022.990234	361.697906
1021.689453	386.641266
1020.390625	369.264343
1019.089844	369.199707
1017.789062	396.051208
1016.488281	382.526184
1015.187500	363.240173
1013.886719	397.764832
1012.585938	355.428070
1011.285156	399.546478
1009.982422	380.270905
1008.681641	359.081879
1007.378906	380.137756
1006.076172	387.749420
1004.773438	353.135651
1003.470703	402.964661
1002.167969	372.197388
1000.865234	360.622955
999.560547	331.791748
998.257812	389.259674
996.953125	387.274292
995.648438	398.707642
994.343750	406.303925
993.039062	344.914581
991.734375	375.507874
990.429688	383.104156
989.125000	342.818146
987.818359	369.565979
986.513672	356.099609
985.207031	375.178986
983.900391	399.993195
982.593750	380.788025
981.287109	327.152466
979.980469	353.874847
978.673828	365.287811
977.365234	390.081970
976.058594	361.336121
974.750000	359.361267
973.443359	363.120575
972.134766	342.037842
970.826172	364.903748
969.517578	353.378845
968.207031	366.685608
966.898438	381.897217
965.589844	372.284485
964.279297	353.131012
962.968750	337.801239
961.658203	328.201263
960.349609	362.484314
959.039062	371.958099
957.726562	345.192871
956.416016	303.182526
955.105469	366.042969
953.792969	333.574371
952.482422	344.950684
951.169922	304.875275
949.857422	354.355316
948.544922	367.626740
947.232422	321.855011
945.919922	361.785309
944.605469	354.106628
943.292969	333.106354
941.978516	346.369812
940.666016	340.600616
939.351562	346.248199
938.037109	338.578918
936.722656	374.653564
935.408203	325.149811
934.091797	351.708496
932.777344	328.837219
931.460938	374.390503
930.146484	340.122498
928.830078	351.461517
927.513672	328.606293
926.197266	338.044220
924.880859	341.782410
923.564453	349.316223
922.246094	339.764221
920.929688	339.704559
919.611328	351.029602
918.294922	368.042053
916.976562	337.628754
915.658203	345.155243
914.339844	335.613983
913.021484	346.929749
911.701172	333.600586
910.382812	305.115082
909.062500	337.272919
907.744141	346.685944
906.423828	335.260254
905.103516	331.413727
903.783203	374.905060
902.462891	331.297241
901.142578	338.810150
899.820312	319.825989
898.500000	304.632721
897.177734	310.254547
895.855469	327.223175
894.535156	323.383362
893.212891	342.234467
891.890625	304.364990
890.566406	308.091705
889.244141	330.715149
887.921875	368.446350
886.597656	349.490173
885.273438	321.096649
883.951172	347.478760
882.626953	324.759949
881.302734	332.254028
879.976562	347.295380
878.652344	318.927124
877.328125	316.984192
876.001953	288.631256
874.677734	335.734131
873.351562	345.104126
872.025391	314.875641
870.699219	292.198425
869.373047	337.382660
868.046875	331.669800
866.718750	335.379730
865.392578	314.598633
864.064453	299.475311
862.738281	316.371033
861.410156	320.080963
860.082031	310.612122
858.753906	331.261261
857.425781	308.620911
856.095703	338.670624
854.767578	327.323944
853.437500	317.862091
852.109375	338.491699
850.779297	355.353699
849.449219	332.732941
848.119141	332.674316
846.789062	347.649200
845.457031	353.224518
844.126953	317.470337
842.796875	309.901642
841.464844	298.579865
840.132812	330.445282
838.800781	294.720245
837.468750	322.821350
836.136719	298.369476
834.804688	354.603088
833.472656	350.788818
832.138672	365.731354
830.806641	298.159149
829.472656	299.981476
828.138672	343.043335
826.804688	299.875732
825.470703	322.309570
824.136719	307.264221
822.802734	329.688843
821.466797	310.901703
820.132812	353.916016
818.796875	316.408752
817.460938	327.584442
816.125000	305.067688
814.789062	314.370117
813.453125	323.669281
812.117188	310.518066
810.779297	334.776672
809.443359	323.498016
808.105469	336.528137
806.767578	321.514618
805.431641	332.671539
804.093750	293.371979
802.753906	308.266479
801.416016	297.004364
800.078125	338.039642
798.738281	293.164948
797.400391	294.980164
796.060547	309.861176
794.720703	279.945618
793.380859	319.081665
792.041016	305.965820
790.701172	285.393311
789.361328	292.802887
788.019531	311.397766
786.679688	305.749786
785.337891	279.599823
783.996094	292.596130
782.654297	318.631226
781.312500	288.766785
779.970703	279.402374
778.628906	270.041229
777.285156	294.199860
775.943359	314.626556
774.599609	331.323273
773.255859	320.098511
771.912109	271.663513
770.568359	286.498566
769.224609	292.028107
767.880859	299.415375
766.535156	275.190369
765.191406	303.027710
763.845703	282.528046
762.500000	286.194946
761.156250	295.434753
759.810547	300.955780
758.462891	273.041229
757.117188	291.563934
755.771484	295.225922
754.423828	323.020294
753.078125	308.114319
751.730469	283.934662
750.382812	304.294464
749.035156	270.848389
747.687500	296.767639
746.339844	304.133057
744.990234	313.349976
743.642578	292.902588
742.292969	324.360046
740.945312	266.854767
739.595703	290.894379
738.246094	288.990417
736.896484	285.234924
735.546875	277.777069
734.195312	298.094666
732.845703	298.041901
731.494141	268.375336
730.144531	294.235352
728.792969	277.531403
727.441406	271.932648
726.089844	275.583649
724.738281	260.741028
723.384766	286.579498
722.033203	280.983032
720.679688	267.995575
719.328125	291.971069
717.974609	299.309753
716.621094	275.242340
715.267578	291.816040
713.914062	269.605042
712.558594	258.479614
711.205078	271.355530
709.849609	273.153107
708.496094	278.640625
707.140625	260.141510
705.785156	274.852631
704.429688	296.935822
703.074219	269.223297
701.718750	280.237610
700.361328	261.754547
699.005859	293.039429
697.648438	272.717926
696.291016	298.462677
694.935547	292.883698
693.578125	303.882050
692.218750	305.669586
690.861328	281.681671
689.503906	277.950287
688.144531	316.549500
686.787109	266.811310
685.427734	270.443512
684.068359	286.950409
682.708984	296.095032
681.349609	279.493561
679.990234	318.051422
678.628906	272.041992
677.269531	277.507141
675.908203	275.620453
674.548828	275.571564
673.187500	270.012238
671.826172	288.329285
670.464844	268.080322
669.101562	282.719482
667.740234	251.465591
666.378906	278.948822
665.015625	238.532333
663.652344	256.835388
662.289062	243.950333
660.925781	275.083130
659.562500	267.700073
658.199219	256.653168
656.835938	295.098755
655.470703	291.381226
654.107422	245.522980
652.742188	267.462646
651.376953	252.762283
650.011719	287.511841
648.646484	241.686783
647.281250	281.917877
645.916016	289.189056
644.548828	267.177887
643.181641	283.597412
641.816406	235.984314
640.449219	285.325714
639.082031	283.446350
637.714844	223.060089
636.347656	292.485870
634.978516	279.639954
633.611328	248.524689
632.242188	239.345230
630.875000	275.837494
629.505859	264.829987
628.136719	255.652496
626.767578	266.561676
625.398438	261.037994
624.027344	257.341370
622.658203	226.274185
621.287109	284.616943
619.917969	248.083496
618.546875	248.039413
617.175781	280.818237
615.804688	264.359802
614.431641	258.844269
613.060547	253.330673
611.689453	266.041046
610.316406	224.090622
608.943359	282.340424
607.572266	271.362854
606.199219	309.553589
604.826172	258.522308
603.451172	260.296600
602.078125	243.870911
600.705078	269.302063
599.330078	267.434875
597.955078	251.016663
596.582031	232.785645
595.207031	230.925919
593.830078	269.062653
592.455078	227.208435
591.080078	274.418945
589.705078	256.199921
588.328125	234.353973
586.951172	256.108765
585.574219	225.190323
584.197266	265.096252
582.820312	248.710449
581.443359	263.186829
580.066406	223.215302
578.687500	261.278717
577.310547	235.834641
575.931641	233.978867
574.552734	264.766144
573.173828	235.708710
571.794922	235.666748
570.416016	268.249756
569.037109	239.207184
567.656250	233.729019
566.277344	244.556580
564.896484	260.813904
563.515625	277.065430
562.134766	269.773834
560.753906	273.346252
559.373047	260.628143
557.992188	240.676163
556.609375	226.159103
555.226562	255.062027
553.845703	258.633850
552.462891	249.546234
551.080078	274.813538
549.697266	225.957703
548.314453	234.954132
546.929688	225.877182
545.546875	231.257004
544.162109	269.149628
542.777344	223.950378
541.394531	218.493271
540.009766	250.951660
538.625000	232.856064
537.238281	227.400253
535.853516	236.381927
534.466797	257.989227
533.082031	209.240662
531.695312	229.041595
530.308594	272.276489
528.921875	223.551407
527.535156	230.721588
526.148438	221.669495
524.759766	236.044907
523.373047	225.193512
521.984375	210.743530
520.597656	230.515900
519.208984	261.084686
517.820312	241.235229
516.431641	257.391663
515.041016	246.548019
513.652344	246.504013
512.261719	223.073318
510.873047	228.429474
509.482422	235.582047
508.091797	203.175735
506.701172	224.711807
505.310547	258.821777
503.919922	222.834534
502.527344	224.591492
501.136719	215.569336
499.744141	219.123032
498.351562	224.471207
496.958984	251.362869
495.566406	190.283615
494.173828	206.402908
492.781250	238.666824
491.386719	238.624191
489.994141	215.261566
488.599609	242.126022
487.205078	209.805069
485.810547	204.388931
484.416016	191.804459
483.021484	241.953049
481.626953	216.822876
480.230469	220.367355
478.835938	227.493118
477.439453	227.452454
476.042969	227.411819
474.646484	236.322800
473.250000	234.490555
471.853516	227.289902
470.457031	186.093903
469.058594	218.263443
467.662109	228.956772
466.263672	234.281052
464.865234	194.901291
463.466797	216.319641
462.068359	244.880096
460.669922	200.158157
459.269531	221.564041
457.871094	214.378464
456.470703	214.340134
455.072266	178.584839
453.671875	223.191116
452.271484	214.225143
450.871094	214.186829
449.468750	180.241669
448.068359	239.089722
446.666016	206.936172
445.265625	205.115524
443.863281	206.862122
442.460938	187.212387
441.058594	212.136063
439.656250	203.186417
438.253906	199.586029
436.849609	213.803894
435.447266	224.453903
434.042969	185.230377
432.638672	215.469849
431.234375	194.066193
429.830078	222.513138
428.425781	250.949875
427.021484	197.520920
425.615234	177.914917
424.210938	195.671356
422.804688	236.542099
421.398438	200.935867
419.992188	190.232635
418.585938	195.531235
417.179688	234.595444
415.773438	232.776505
414.365234	227.405014
412.957031	225.587982
411.550781	225.547577
410.142578	236.161041
408.734375	229.017426
407.326172	244.951477
405.916016	204.089661
404.507812	225.345581
403.099609	250.141998
401.689453	266.060822
400.279297	219.904190
398.869141	241.141998
397.458984	248.189926
396.048828	210.923615
394.638672	228.607300
393.226562	233.881821
391.816406	258.641083
390.404297	267.450684
388.992188	208.963730
387.580078	233.714127
386.167969	238.982941
384.755859	256.639343
383.343750	233.588409
381.929688	235.315796
380.517578	228.197693
379.103516	208.701538
377.689453	213.969116
376.275391	221.002823
374.861328	187.376770
373.447266	224.458313
372.033203	206.747314
370.617188	213.777237
369.201172	173.110825
367.787109	185.442596
366.371094	199.535751
364.955078	215.389313
363.539062	169.456253
362.121094	215.311996
360.705078	195.863464
359.287109	199.356735
357.871094	194.029236
356.453125	197.521576
355.035156	192.196304
353.617188	199.213608
352.199219	185.076752
350.781250	177.994232
349.361328	190.296295
347.943359	192.023804
346.523438	202.557541
345.103516	176.105347
343.683594	170.791504
342.263672	183.083771
340.843750	181.290787
339.421875	181.258209
338.001953	165.390396
336.580078	188.229706
335.158203	195.231247
333.738281	156.508636
332.316406	195.161087
330.892578	147.662933
329.470703	177.515182
328.048828	145.852600
326.625000	138.798599
325.203125	198.499023
323.779297	186.169159
322.355469	163.307724
320.931641	156.255646
319.507812	187.824127
318.082031	187.790359
316.658203	170.209244
315.232422	131.581421
313.806641	171.902145
312.382812	187.655319
310.957031	175.347260
309.531250	168.303101
308.103516	182.295563
306.677734	171.747604
305.250000	173.468918
303.824219	164.678238
302.396484	171.654922
300.968750	194.390503
299.541016	171.593170
298.113281	152.305298
296.685547	161.029495
295.255859	190.750610
293.828125	167.970306
292.398438	181.935074
290.968750	152.168289
289.539062	181.869583
288.109375	141.622925
286.679688	164.322952
285.250000	166.041168
283.818359	169.506241
282.386719	160.739868
280.957031	143.242340
279.525391	165.921616
278.093750	165.891724
276.662109	129.197662
275.228516	172.814377
273.796875	139.622833
272.363281	139.597687
270.931641	139.572540
269.498047	143.036087
268.064453	153.474487
266.630859	141.240829
265.197266	144.702179
263.761719	128.988342
262.328125	139.421722
260.892578	134.169235
259.458984	162.019348
258.023438	141.088196
256.587891	146.287308
255.152344	149.743347
253.714844	168.866119
252.279297	151.429947
250.843750	163.584473
249.406250	144.415558
247.968750	132.212097
246.531250	161.756683
245.093750	149.554474
243.656250	119.969749
242.218750	163.407578
240.779297	111.236153
239.341797	168.561890
237.902344	111.196037
236.462891	140.707092
235.023438	147.628967
233.583984	152.811829
232.144531	149.311890
230.703125	130.190353
229.263672	131.902435
227.822266	154.436813
226.380859	156.143875
224.939453	140.504135
223.498047	131.807251
222.056641	152.591370
220.615234	143.895432
219.171875	135.202621
217.730469	124.779900
216.287109	169.808640
214.843750	169.777985
213.400391	133.372910
211.957031	128.153427
210.513672	145.445190
209.070312	129.838318
207.625000	154.046982
206.179688	136.713638
204.736328	136.688950
203.291016	148.773758
201.845703	114.154587
200.398438	134.885605
198.953125	133.132248
197.507812	121.007446
196.060547	112.343758
194.613281	143.428421
193.167969	127.852837
191.720703	148.558884
190.271484	131.260864
188.824219	124.329933
187.376953	119.127983
185.927734	136.368256
184.480469	141.521225
183.031250	144.946747
181.582031	91.437965
180.132812	141.444489
178.683594	153.491257
177.232422	132.771805
175.783203	141.367783
174.332031	118.934311
172.882812	112.019310
171.431641	101.660675
169.980469	124.038055
168.529297	103.346352
167.076172	113.660423
165.625000	120.527130
164.171875	127.391350
162.720703	120.483528
161.267578	135.949677
159.814453	139.366211
158.361328	125.578926
156.908203	154.795319
155.453125	118.654938
154.000000	103.159538
152.544922	108.297913
151.089844	101.403496
149.636719	130.597809
148.181641	115.111443
146.724609	127.115005
145.269531	111.634857
143.814453	125.351837
142.357422	135.630173
140.900391	118.440346
139.445312	106.405388
137.988281	92.658882
136.531250	92.642105
135.072266	113.208733
133.615234	106.328339
132.156250	104.594414
130.699219	99.432419
129.240234	95.986320
127.781250	99.396400
126.322266	104.518654
124.863281	125.057037
123.404297	125.034386
121.943359	109.599319
120.484375	128.413437
119.023438	116.407082
117.562500	94.135727
116.101562	97.541161
114.640625	107.789116
113.179688	94.084557
111.716797	76.964317
110.255859	119.700569
108.792969	119.678871
107.330078	80.341248
105.867188	95.708382
104.404297	80.312119
102.941406	71.755264
101.478516	90.531891
100.013672	71.729240
