#Wave		#Intensity
2199.041016	985.710083
2197.943359	1006.198303
2196.843750	933.194824
2195.746094	974.000916
2194.646484	982.938782
2193.548828	937.275085
2192.449219	955.314270
2191.349609	1009.734253
2190.250000	961.815125
2189.150391	1032.129517
2188.050781	963.765381
2186.951172	931.786560
2185.849609	986.164673
2184.750000	976.911621
2183.650391	979.019165
2182.548828	924.347839
2181.447266	969.607605
2180.347656	930.848694
2179.246094	955.662231
2178.144531	941.884216
2177.042969	957.610657
2175.939453	948.374512
2174.837891	957.289124
2173.736328	984.345337
2172.632812	993.250916
2171.531250	947.737793
2170.427734	952.112549
2169.324219	985.950989
2168.222656	978.986938
2167.119141	1019.606812
2166.015625	994.516052
2164.912109	919.602966
2163.806641	996.446716
2162.703125	982.693726
2161.599609	959.889771
2160.494141	1002.735291
2159.390625	993.514343
2158.285156	932.253174
2157.179688	913.997620
2156.074219	986.227783
2154.968750	974.754028
2153.863281	994.941345
2152.757812	978.948242
2151.652344	1010.430420
2150.544922	976.359253
2149.439453	944.559265
2148.332031	903.732605
2147.226562	1016.528320
2146.119141	991.513184
2145.011719	973.281067
2143.904297	991.179993
2142.796875	984.241150
2141.689453	984.075684
2140.582031	974.883606
2139.474609	990.513855
2138.365234	949.740845
2137.257812	922.514771
2136.148438	980.993774
2135.041016	1012.395813
2133.931641	971.646423
2132.822266	966.975037
2131.712891	1005.124390
2130.603516	959.890137
2129.494141	998.027771
2128.382812	979.839905
2127.273438	1013.457092
2126.164062	977.258667
2125.052734	1008.613525
2123.941406	994.937988
2122.832031	1019.527405
2121.720703	1014.855469
2120.609375	953.938660
2119.498047	965.025635
2118.386719	976.108826
2117.275391	1007.426697
2116.162109	996.015564
2115.050781	1009.335754
2113.937500	993.432861
2112.826172	1033.715454
2111.712891	923.446960
2110.599609	894.087708
2109.486328	954.581299
2108.373047	1008.317383
2107.259766	940.788147
2106.146484	1001.243225
2105.033203	913.536865
2103.919922	1005.394714
2102.804688	949.130310
2101.691406	978.135193
2100.576172	939.838684
2099.460938	1027.144775
2098.345703	991.095154
2097.230469	943.848022
2096.115234	993.003113
2095.000000	992.835938
2093.884766	997.150391
2092.769531	999.222961
2091.652344	1028.175171
2090.537109	1003.365845
2089.419922	1030.068237
2088.302734	989.594604
2087.187500	951.373047
2086.070312	942.260254
2084.953125	953.290466
2083.835938	1031.438721
2082.716797	926.125244
2081.599609	975.175354
2080.482422	983.956177
2079.363281	903.298523
2078.246094	952.327637
2077.126953	1001.340210
2076.007812	922.955017
2074.888672	976.424683
2073.769531	958.388184
2072.650391	940.357666
2071.531250	926.799744
2070.412109	951.205261
2069.292969	930.952515
2068.171875	950.884766
2067.052734	995.359497
2065.931641	939.407532
2064.810547	939.249207
2063.689453	963.627747
2062.568359	956.774658
2061.447266	983.371826
2060.326172	980.976624
2059.205078	965.207458
2058.083984	956.129822
2056.960938	993.850891
2055.839844	946.895569
2054.716797	980.150208
2053.595703	946.576416
2052.472656	966.458618
2051.349609	1041.996216
2050.226562	986.167786
2049.103516	986.001526
2047.980469	994.736755
2046.855469	934.494385
2045.732422	958.807556
2044.607422	971.991272
2043.484375	991.842163
2042.359375	985.004456
2041.234375	891.467651
2040.111328	962.444885
2038.986328	986.728516
2037.861328	1013.225952
2036.734375	924.190552
2035.609375	910.707275
2034.484375	943.866577
2033.357422	968.132751
2032.232422	1001.271118
2031.105469	983.344299
2029.978516	989.836548
2028.853516	965.260620
2027.726562	978.409485
2026.599609	980.462646
2025.470703	982.515076
2024.343750	1008.959229
2023.216797	940.058289
2022.087891	999.751770
2020.960938	910.928223
2019.832031	1012.710327
2018.705078	943.855103
2017.576172	954.772095
2016.447266	963.470398
2015.318359	963.307800
2014.189453	958.716919
2013.060547	956.341370
2011.929688	991.593994
2010.800781	936.101440
2009.669922	958.069763
2008.541016	988.879639
2007.410156	955.534363
2006.279297	1012.872375
2005.148438	939.733765
2004.017578	988.211914
2002.886719	957.099609
2001.755859	895.057434
2000.625000	983.292114
1999.494141	947.777710
1998.361328	947.617615
1997.228516	936.414978
1996.097656	936.256775
1994.964844	927.267517
1993.832031	975.673889
1992.699219	896.055847
1991.566406	977.550903
1990.433594	955.322937
1989.300781	950.749695
1988.166016	994.699951
1987.033203	1005.557739
1985.898438	994.363831
1984.765625	921.449768
1983.630859	932.314331
1982.496094	963.008362
1981.361328	998.098511
1980.226562	931.841797
1979.091797	960.317627
1977.957031	960.155334
1976.820312	973.203979
1975.685547	940.017761
1974.548828	944.261047
1973.414062	966.108459
1972.277344	965.945190
1971.140625	976.781677
1970.003906	956.820251
1968.867188	998.443604
1967.730469	941.104858
1966.593750	949.739624
1965.457031	896.824646
1964.318359	927.441223
1963.181641	914.100281
1962.042969	918.339661
1960.904297	986.279358
1959.767578	907.047913
1958.628906	931.049072
1957.490234	952.846619
1956.351562	983.417236
1955.210938	967.887573
1954.072266	930.419312
1952.933594	996.082397
1951.792969	943.266479
1950.654297	932.140503
1949.513672	896.896423
1948.373047	914.284912
1947.232422	971.126404
1946.091797	918.359192
1944.951172	953.266479
1943.810547	977.206665
1942.669922	902.558350
1941.527344	917.737732
1940.386719	932.911987
1939.244141	1005.009705
1938.101562	943.542236
1936.960938	925.871948
1935.818359	927.903687
1934.675781	945.251282
1933.533203	931.965027
1932.388672	927.432617
1931.246094	942.584412
1930.103516	898.692810
1928.958984	911.658081
1927.816406	935.548157
1926.671875	928.833313
1925.527344	902.454590
1924.382812	889.193298
1923.238281	934.914734
1922.093750	952.228516
1920.949219	901.843506
1919.804688	934.439880
1918.658203	908.086792
1917.513672	971.226440
1916.367188	916.507874
1915.222656	920.716248
1914.076172	920.560303
1912.929688	946.577026
1911.783203	918.067749
1910.636719	909.190979
1909.490234	882.877625
1908.343750	915.421692
1907.195312	904.370544
1906.048828	919.469238
1904.900391	945.455017
1903.753906	901.732849
1902.605469	873.269592
1901.457031	907.959351
1900.308594	907.805481
1899.160156	885.885437
1898.011719	894.440308
1896.861328	939.982300
1895.712891	909.365784
1894.564453	930.963135
1893.414062	954.727905
1892.263672	804.531738
1891.115234	928.315735
1889.964844	904.247986
1888.814453	949.734070
1887.664062	925.670776
1886.513672	884.235046
1885.361328	925.356873
1884.210938	931.715515
1883.058594	935.900452
1881.908203	916.201904
1880.755859	961.631775
1879.603516	915.891174
1878.453125	937.435730
1877.300781	948.124878
1876.148438	898.071228
1874.994141	949.972168
1873.841797	941.136963
1872.689453	899.782471
1871.535156	823.757446
1870.382812	908.146912
1869.228516	894.990540
1868.074219	916.505493
1866.919922	961.842529
1865.765625	918.360474
1864.611328	868.396362
1863.457031	896.396729
1862.302734	833.464233
1861.148438	932.888611
1859.992188	921.909790
1858.837891	900.115906
1857.681641	925.923645
1856.525391	936.581543
1855.369141	934.259949
1854.212891	942.750427
1853.056641	916.647583
1851.900391	903.522705
1850.744141	970.365662
1849.585938	952.914490
1848.429688	877.137390
1847.271484	905.069397
1846.115234	986.984497
1844.957031	889.646729
1843.798828	891.654663
1842.640625	956.261353
1841.482422	869.769470
1840.324219	889.042603
1839.166016	875.946655
1838.005859	923.254883
1836.847656	843.297546
1835.687500	925.097717
1834.527344	914.160400
1833.369141	933.406189
1832.208984	959.111267
1831.048828	911.539673
1829.888672	853.211304
1828.726562	915.538391
1827.566406	908.921326
1826.406250	902.306458
1825.244141	953.827820
1824.083984	914.916321
1822.921875	921.218018
1821.759766	925.365479
1820.597656	880.023682
1819.435547	892.781799
1818.273438	922.742920
1817.111328	956.994873
1815.949219	885.876099
1814.785156	954.519775
1813.623047	939.311340
1812.458984	956.344360
1811.296875	926.099670
1810.132812	940.980774
1808.968750	906.452881
1807.804688	936.365601
1806.640625	938.353638
1805.476562	880.227905
1804.310547	884.371277
1803.146484	877.782410
1801.980469	881.924744
1800.816406	922.538086
1799.650391	883.769897
1798.484375	924.369019
1797.318359	915.634460
1796.152344	934.774536
1794.986328	966.769714
1793.820312	951.602539
1792.654297	904.297180
1791.486328	887.003235
1790.320312	912.558167
1789.152344	933.820862
1787.984375	931.520569
1786.816406	944.208435
1785.648438	952.610596
1784.480469	918.203125
1783.312500	853.847839
1782.144531	864.400574
1780.976562	919.873718
1779.806641	902.606140
1778.638672	876.790405
1777.468750	910.851562
1776.298828	929.936584
1775.128906	953.289978
1773.958984	906.112427
1772.789062	925.188416
1771.619141	916.485596
1770.449219	1003.904236
1769.279297	890.546326
1768.107422	905.341431
1766.937500	877.433899
1765.765625	919.974731
1764.593750	951.830322
1763.421875	930.330383
1762.250000	864.035889
1761.078125	940.678833
1759.906250	959.712891
1758.734375	906.241150
1757.560547	886.899109
1756.388672	927.248535
1755.214844	880.203247
1754.042969	888.576843
1752.869141	903.339111
1751.695312	877.623352
1750.521484	881.733459
1749.347656	890.100952
1748.173828	919.756226
1746.998047	925.985596
1745.824219	889.646057
1744.648438	855.446838
1743.474609	906.363831
1742.298828	948.754395
1741.123047	918.816284
1739.947266	884.635254
1738.771484	914.250793
1737.595703	914.094971
1736.419922	941.569885
1735.244141	898.907837
1734.066406	917.877075
1732.890625	911.347534
1731.712891	938.804077
1730.535156	934.396729
1729.357422	900.265198
1728.181641	891.620056
1727.001953	887.222961
1725.824219	893.438232
1724.646484	884.798584
1723.468750	884.647705
1722.289062	914.192200
1721.111328	911.915588
1719.931641	871.472961
1718.751953	915.844543
1717.572266	881.773987
1716.392578	904.935730
1715.212891	911.138184
1714.033203	938.524109
1712.853516	885.408936
1711.671875	917.025513
1710.492188	876.636902
1709.310547	889.190063
1708.130859	948.307556
1706.949219	935.447388
1705.767578	886.618958
1704.585938	875.889282
1703.404297	926.507385
1702.222656	907.314697
1701.039062	866.982605
1699.857422	926.033081
1698.673828	921.647278
1697.492188	891.900879
1696.308594	898.088074
1695.125000	954.980042
1693.941406	893.556641
1692.757812	971.550537
1691.574219	893.251587
1690.390625	878.319641
1689.205078	884.502686
1688.021484	873.798523
1686.835938	920.075134
1685.652344	850.291199
1684.466797	883.898682
1683.281250	896.402893
1682.095703	864.617432
1680.910156	893.988281
1679.724609	876.970764
1678.539062	893.682922
1677.351562	876.671204
1676.166016	908.126770
1674.978516	870.051758
1673.791016	912.029175
1672.605469	844.483215
1671.417969	913.823181
1670.230469	892.614807
1669.042969	890.357422
1667.853516	867.055786
1666.666016	940.552673
1665.478516	904.627625
1664.289062	866.611389
1663.099609	935.864441
1661.912109	929.396362
1660.722656	876.678894
1659.533203	866.019104
1658.343750	867.972717
1657.154297	928.761169
1655.962891	905.492371
1654.773438	894.834839
1653.583984	938.785889
1652.392578	907.127930
1651.201172	915.370728
1650.011719	875.331055
1648.820312	891.971436
1647.628906	942.180420
1646.437500	889.568359
1645.244141	824.388184
1644.052734	882.972168
1642.861328	905.887756
1641.667969	849.124573
1640.476562	909.770447
1639.283203	882.368286
1638.089844	857.071045
1636.896484	905.113342
1635.703125	915.432556
1634.509766	846.158997
1633.316406	910.931213
1632.121094	783.057434
1630.927734	931.553284
1629.732422	895.812561
1628.539062	834.972107
1627.343750	836.921509
1626.148438	866.065552
1624.953125	905.657532
1623.757812	853.221802
1622.562500	886.529724
1621.367188	901.011597
1620.169922	865.324707
1618.974609	863.086792
1617.777344	873.386292
1616.580078	877.414917
1615.384766	850.111328
1614.187500	826.993713
1612.990234	818.500122
1611.791016	893.515503
1610.593750	916.322754
1609.396484	889.035645
1608.197266	886.796875
1607.000000	838.661865
1605.800781	846.861694
1604.601562	880.084839
1603.404297	871.593506
1602.205078	921.479309
1601.005859	831.690613
1599.804688	860.725342
1598.605469	827.238281
1597.406250	927.098206
1596.205078	833.203918
1595.005859	878.879578
1593.804688	866.235229
1592.603516	903.561707
1591.402344	865.938416
1590.201172	863.708801
1589.000000	907.259094
1587.798828	882.137451
1586.595703	923.589417
1585.394531	856.877563
1584.191406	900.399048
1582.990234	883.612000
1581.787109	891.775513
1580.583984	924.876648
1579.380859	903.937927
1578.177734	928.714905
1576.974609	893.241516
1575.771484	864.011108
1574.566406	880.475708
1573.363281	838.799988
1572.158203	836.580322
1570.953125	830.210266
1569.750000	844.594116
1568.544922	879.721130
1567.339844	902.389282
1566.134766	873.197144
1564.927734	875.121094
1563.722656	872.897644
1562.515625	866.528809
1561.310547	847.726074
1560.103516	853.797607
1558.898438	851.579224
1557.691406	832.788635
1556.484375	814.004395
1555.277344	824.219299
1554.068359	838.571716
1552.861328	848.778809
1551.654297	838.283997
1550.445312	906.433044
1549.238281	871.102356
1548.029297	839.921265
1546.820312	895.624390
1545.611328	829.292725
1544.402344	889.113892
1543.193359	895.163330
1541.984375	886.741699
1540.773438	870.056335
1539.564453	857.509277
1538.353516	871.823608
1537.142578	822.100037
1535.933594	873.589478
1534.722656	892.023315
1533.511719	854.708923
1532.300781	825.663940
1531.087891	877.117310
1529.876953	905.854980
1528.666016	862.374390
1527.453125	868.414551
1526.242188	849.703918
1525.029297	857.806091
1523.816406	888.583984
1522.603516	861.634094
1521.390625	818.205688
1520.177734	875.762451
1518.962891	815.864319
1517.750000	848.682739
1516.537109	834.120056
1515.322266	877.219971
1514.107422	831.774597
1512.892578	811.046753
1511.679688	862.360901
1510.464844	876.617188
1509.248047	845.605042
1508.033203	831.060181
1506.818359	888.505676
1505.601562	876.014771
1504.386719	851.191956
1503.169922	853.101318
1501.953125	855.009949
1500.736328	834.313416
1499.519531	821.842346
1498.302734	852.514832
1497.085938	831.829285
1495.869141	860.435913
1494.650391	856.181580
1493.433594	806.766235
1492.214844	884.622009
1490.998047	863.948547
1489.779297	794.039368
1488.560547	886.217102
1487.341797	832.736755
1486.123047	844.897827
1484.902344	852.954041
1483.683594	822.057007
1482.462891	903.902222
1481.244141	821.774231
1480.023438	864.661011
1478.802734	864.512268
1477.582031	843.880981
1476.361328	825.304688
1475.140625	806.734741
1473.919922	861.870239
1472.699219	831.019226
1471.476562	845.201721
1470.255859	800.041138
1469.033203	830.590271
1467.810547	822.265564
1466.587891	877.341370
1465.365234	869.011414
1464.142578	858.639954
1462.919922	821.699585
1461.697266	854.256958
1460.472656	815.286743
1459.250000	804.931519
1458.025391	808.878174
1456.800781	857.753357
1455.576172	849.437988
1454.351562	792.127869
1453.126953	822.609680
1451.902344	828.590637
1450.677734	840.691040
1449.451172	799.742981
1448.226562	881.197632
1447.000000	834.138306
1445.775391	817.681824
1444.548828	868.509827
1443.322266	864.283447
1442.095703	847.830078
1440.869141	815.080811
1439.640625	845.500671
1438.414062	816.836975
1437.185547	839.099365
1435.958984	830.809570
1434.730469	857.133728
1433.501953	881.413208
1432.273438	856.838379
1431.044922	820.062561
1429.816406	838.232117
1428.587891	803.506348
1427.359375	862.349304
1426.128906	864.234192
1424.900391	853.919495
1423.669922	853.772278
1422.439453	906.468567
1421.208984	853.477905
1419.978516	855.362549
1418.748047	822.712830
1417.517578	834.757202
1416.287109	806.183594
1415.054688	808.074890
1413.824219	828.235474
1412.591797	811.855530
1411.359375	860.418396
1410.126953	809.546570
1408.894531	874.321777
1407.662109	882.283936
1406.429688	865.908630
1405.197266	843.456299
1403.962891	855.473938
1402.730469	816.816406
1401.496094	843.019836
1400.261719	834.769836
1399.029297	862.986877
1397.794922	866.888855
1396.560547	842.438171
1395.324219	866.589661
1394.089844	884.659668
1392.855469	805.569275
1391.619141	849.951538
1390.384766	778.987732
1389.148438	778.853271
1387.912109	780.741516
1386.675781	814.985779
1385.439453	843.152344
1384.203125	824.812439
1382.966797	806.478760
1381.728516	893.238281
1380.492188	832.467468
1379.253906	878.788391
1378.015625	826.120422
1376.779297	832.036316
1375.541016	801.605286
1374.302734	841.843018
1373.062500	835.642212
1371.824219	809.262451
1370.585938	867.637756
1369.345703	827.139648
1368.107422	915.747620
1366.867188	889.372131
1365.626953	790.416443
1364.386719	848.744446
1363.146484	808.284363
1361.906250	836.359253
1360.666016	878.529236
1359.425781	830.026367
1358.183594	837.940063
1356.943359	815.641968
1355.701172	813.487427
1354.458984	797.240967
1353.216797	855.476929
1351.974609	831.178589
1350.732422	843.108032
1349.490234	790.654358
1348.246094	780.460205
1347.003906	810.492493
1345.759766	786.222778
1344.517578	780.055542
1343.273438	824.142944
1342.029297	852.137024
1340.785156	825.867371
1339.541016	823.715515
1338.296875	871.782227
1337.050781	811.380432
1335.806641	855.416565
1334.560547	831.176514
1333.316406	772.820312
1332.070312	816.840149
1330.824219	798.639160
1329.578125	780.444458
1328.332031	816.416321
1327.085938	802.235962
1325.837891	822.149597
1324.591797	864.110168
1323.345703	867.969727
1322.097656	841.764893
1320.849609	787.515137
1319.601562	837.466614
1318.353516	843.331177
1317.105469	813.142944
1315.857422	800.987427
1314.609375	808.857300
1313.359375	830.736816
1312.111328	774.552979
1310.861328	818.442749
1309.611328	816.300293
1308.361328	772.150391
1307.111328	840.018188
1305.861328	785.880920
1304.611328	779.746826
1303.361328	759.621765
1302.109375	847.431152
1300.859375	787.335083
1299.607422	825.160095
1298.355469	789.059998
1297.103516	832.863342
1295.851562	738.863464
1294.599609	810.612488
1293.347656	782.524719
1292.095703	766.422058
1290.841797	816.177917
1289.589844	728.247742
1288.335938	774.003235
1287.082031	743.951477
1285.830078	787.694153
1284.576172	733.724609
1283.322266	827.290649
1282.066406	837.112915
1280.812500	793.126648
1279.558594	828.853027
1278.302734	772.930847
1277.046875	804.664795
1275.792969	780.628540
1274.537109	760.582703
1273.281250	800.265015
1272.025391	806.097351
1270.767578	799.987549
1269.511719	805.817871
1268.255859	801.699524
1266.998047	813.494385
1265.740234	817.330627
1264.484375	783.387878
1263.226562	763.372559
1261.968750	816.905518
1260.710938	782.980408
1259.453125	794.766113
1258.193359	820.453674
1256.935547	766.683228
1255.675781	790.380859
1254.417969	827.968933
1253.158203	845.692017
1251.898438	789.969543
1250.638672	781.894470
1249.378906	795.647949
1248.119141	793.526062
1246.857422	783.471008
1245.597656	826.963867
1244.335938	801.044189
1243.076172	792.975403
1241.814453	784.909424
1240.552734	798.645447
1239.291016	836.153503
1238.029297	810.254578
1236.767578	758.615234
1235.503906	837.698547
1234.242188	754.391785
1232.978516	795.834290
1231.714844	813.510193
1230.453125	805.452942
1229.189453	791.462524
1227.925781	769.563660
1226.662109	773.385925
1225.396484	804.893616
1224.132812	834.413086
1222.869141	796.706360
1221.603516	838.076477
1220.337891	780.619568
1219.072266	798.267151
1217.808594	782.323975
1216.542969	764.411072
1215.275391	752.429016
1214.009766	758.221863
1212.744141	815.341736
1211.476562	840.860107
1210.210938	769.667786
1208.943359	814.916809
1207.675781	735.862366
1206.408203	836.330872
1205.140625	800.687073
1203.873047	820.265869
1202.605469	755.065430
1201.335938	754.934204
1200.068359	794.218262
1198.798828	798.021057
1197.531250	793.942139
1196.261719	742.590942
1194.992188	809.421265
1193.722656	832.909180
1192.453125	817.014648
1191.181641	830.651184
1189.912109	747.849670
1188.640625	759.525696
1187.371094	822.348572
1186.099609	814.337524
1184.828125	719.796387
1183.556641	794.391113
1182.285156	806.048767
1181.013672	803.942932
1179.742188	811.664246
1178.468750	774.189087
1177.197266	801.558838
1175.923828	762.134155
1174.650391	773.785034
1173.376953	799.176941
1172.103516	783.331970
1170.830078	777.307007
1169.556641	777.171692
1168.283203	769.187622
1167.007812	782.786865
1165.734375	794.419800
1164.458984	751.135376
1163.183594	798.064941
1161.908203	772.439453
1160.632812	836.990417
1159.357422	850.563477
1158.082031	754.400757
1156.806641	828.716797
1155.529297	838.366516
1154.253906	734.422180
1152.976562	832.200195
1151.699219	822.266357
1150.421875	818.208313
1149.144531	771.095520
1147.867188	800.312561
1146.589844	774.739807
1145.312500	764.824463
1144.033203	737.310974
1142.753906	762.602661
1141.476562	797.660706
1140.197266	824.887695
1138.917969	814.972107
1137.638672	767.933411
1136.359375	769.753296
1135.078125	726.645508
1133.798828	787.062134
1132.519531	757.635010
1131.238281	745.789001
1129.957031	767.130859
1128.675781	821.643250
1127.394531	807.840881
1126.113281	731.612427
1124.832031	758.793640
1123.550781	787.915649
1122.267578	797.528015
1120.986328	803.237793
1119.703125	748.518311
1118.419922	808.804504
1117.136719	717.079895
1115.853516	781.247009
1114.570312	806.433594
1113.287109	769.289185
1112.003906	761.366089
1110.718750	804.064819
1109.435547	782.512573
1108.150391	786.268494
1106.865234	731.646973
1105.580078	764.593384
1104.294922	743.062866
1103.009766	758.492065
1101.724609	775.860352
1100.437500	750.450745
1099.152344	740.600647
1097.865234	765.736816
1096.580078	786.977905
1095.292969	781.012146
1094.005859	747.853699
1092.718750	751.607483
1091.431641	763.127075
1090.142578	733.871948
1088.855469	758.978455
1087.566406	774.372192
1086.279297	729.606812
1084.990234	743.060181
1083.701172	770.087219
1082.412109	696.254517
1081.123047	711.645630
1079.833984	742.541382
1078.542969	771.487915
1077.253906	734.529785
1075.962891	755.716614
1074.673828	740.085449
1073.382812	703.152100
1072.091797	790.181641
1070.800781	784.234497
1069.509766	724.080139
1068.218750	768.474854
1066.925781	737.374756
1065.634766	708.220520
1064.341797	706.162048
1063.048828	738.922668
1061.757812	789.077942
1060.464844	777.338013
1059.171875	754.002136
1057.876953	765.468323
1056.583984	742.142639
1055.291016	763.268494
1053.996094	792.114868
1052.703125	763.001709
1051.408203	745.486511
1050.113281	731.839355
1048.818359	754.879089
1047.523438	735.444092
1046.228516	710.226013
1044.931641	775.709106
1043.636719	740.846252
1042.339844	763.864136
1041.042969	686.586060
1039.748047	717.318420
1038.451172	724.904724
1037.154297	713.212280
1035.857422	740.069275
1034.558594	739.939819
1033.261719	745.590149
1031.962891	720.418457
1030.666016	754.958923
1029.367188	789.487244
1028.068359	750.844299
1026.769531	719.914429
1025.470703	733.260437
1024.171875	750.450195
1022.873047	763.786133
1021.572266	769.423157
1020.273438	711.591858
1018.972656	709.544434
1017.671875	751.716309
1016.371094	720.829346
1015.070312	745.687561
1013.769531	751.321655
1012.468750	730.056885
1011.167969	729.929077
1009.865234	693.311218
1008.562500	745.035095
1007.261719	771.782654
1005.958984	717.900879
1004.656250	761.916443
1003.353516	736.838013
1002.050781	773.160706
1000.746094	773.025269
999.443359	784.396912
998.138672	755.496948
996.835938	713.186951
995.531250	724.562988
994.226562	795.346497
992.921875	693.650574
991.617188	726.098083
990.312500	766.196167
989.005859	716.267883
987.701172	733.375732
986.394531	691.128601
985.089844	779.058289
983.783203	725.335022
982.476562	704.159668
981.169922	711.688843
979.863281	747.907410
978.554688	719.089233
977.248047	755.293762
975.939453	726.484375
974.632812	745.471680
973.324219	718.585144
972.015625	754.764282
970.707031	766.094666
969.398438	735.398376
968.089844	740.998779
966.779297	788.605225
965.470703	757.920959
964.160156	694.798096
962.851562	744.296021
961.541016	713.635559
960.230469	757.389404
958.919922	736.274597
957.609375	688.467651
956.296875	715.041748
954.986328	684.413208
953.675781	720.509216
952.363281	697.513489
951.050781	741.216248
949.738281	741.086182
948.425781	695.241577
947.113281	750.348267
945.800781	763.545288
944.488281	751.988708
943.173828	706.174255
941.861328	726.984436
940.546875	675.482117
939.232422	728.631653
937.917969	732.307922
936.603516	709.358154
935.289062	722.543640
933.974609	707.208008
932.658203	733.694519
931.343750	725.963989
930.027344	691.634766
928.710938	720.009705
927.394531	716.084412
926.078125	731.151428
924.761719	742.415588
923.445312	728.996155
922.128906	713.683350
920.810547	698.375916
919.492188	677.381531
918.175781	711.410217
916.857422	722.665771
915.539062	690.299500
914.220703	697.762634
912.902344	739.346741
911.582031	674.772278
910.263672	723.926147
908.943359	682.114136
907.625000	706.621826
906.304688	710.285828
904.984375	676.073242
903.664062	677.847839
902.343750	719.376831
901.023438	694.644409
899.701172	679.382874
898.380859	688.723877
897.058594	739.680481
895.736328	654.435913
894.416016	656.211914
893.093750	712.819580
891.769531	697.570740
890.447266	680.437134
889.125000	674.648132
887.800781	714.207703
886.478516	719.749390
885.154297	685.624817
883.830078	676.062012
882.505859	689.159851
881.181641	687.150818
879.857422	687.029907
878.533203	686.909058
877.208984	694.335327
875.882812	671.575745
874.556641	709.179871
873.232422	705.283508
871.906250	686.304871
870.580078	701.265015
869.253906	631.404419
867.925781	695.364807
866.599609	702.778931
865.273438	691.352417
863.945312	683.696838
862.617188	687.342773
861.289062	711.698120
859.960938	679.570862
858.632812	732.151001
857.304688	666.158936
855.976562	667.923096
854.646484	660.280884
853.318359	697.780823
851.988281	684.494568
850.658203	755.819641
849.328125	718.090149
847.998047	721.722595
846.667969	670.858276
845.337891	723.347168
844.007812	721.341248
842.675781	709.945190
841.343750	719.209229
840.013672	751.000000
838.681641	709.569946
837.349609	705.691223
836.017578	724.331909
834.683594	679.176025
833.351562	729.704163
832.019531	692.065247
830.685547	723.821350
829.351562	721.818909
828.017578	725.440735
826.685547	729.061218
825.349609	672.716797
824.015625	745.665955
822.681641	696.831177
821.345703	636.776428
820.011719	717.183411
818.675781	685.229370
817.339844	728.161743
816.003906	696.216980
814.667969	709.192749
813.332031	671.649780
811.996094	695.848633
810.660156	682.634277
809.322266	691.863342
807.984375	665.567261
806.648438	695.357727
805.310547	689.628296
803.972656	696.980896
802.634766	670.702393
801.294922	663.112366
799.957031	709.685120
798.617188	696.489014
797.279297	687.031433
795.939453	690.643372
794.599609	677.457581
793.259766	679.203918
791.919922	694.008911
790.580078	686.425293
789.240234	660.194702
787.898438	643.296448
786.558594	680.468872
785.216797	656.117065
783.875000	691.410400
782.533203	665.201904
781.191406	685.577271
779.849609	674.280273
778.507812	687.197449
777.164062	634.940186
775.822266	681.369690
774.478516	679.387939
773.134766	690.434021
771.791016	667.983887
770.447266	703.212524
769.103516	678.907959
767.759766	636.015076
766.414062	682.386780
765.070312	710.151733
763.724609	630.101807
762.378906	654.149353
761.033203	667.040100
759.687500	635.340942
758.341797	614.797302
756.996094	655.544067
755.650391	655.428162
754.302734	655.312317
752.955078	645.916016
751.609375	619.821289
750.261719	658.675598
748.914062	662.269348
747.566406	606.509155
746.216797	632.364075
744.869141	671.188599
743.521484	698.876648
742.171875	667.244263
740.822266	633.769958
739.472656	665.155457
738.125000	640.955627
736.773438	683.441589
735.423828	675.913391
734.074219	651.724426
732.722656	640.502136
731.373047	629.283813
730.021484	638.424988
728.669922	645.712769
727.318359	656.697571
725.966797	654.731812
724.615234	595.441650
723.263672	613.824951
721.910156	667.324036
720.558594	665.357666
719.205078	617.194824
717.851562	596.762329
716.498047	644.684814
715.144531	598.397949
713.791016	614.911255
712.437500	603.724854
711.082031	620.231262
709.728516	640.423035
708.373047	658.762329
707.017578	660.490601
705.664062	612.413513
704.308594	643.658020
702.951172	608.508606
701.595703	637.899048
700.240234	656.219177
698.882812	622.929199
697.525391	611.762878
696.169922	587.704102
694.812500	606.020081
693.455078	596.704285
692.097656	649.997742
690.738281	596.492798
689.380859	647.926697
688.023438	579.718018
686.664062	598.015747
685.304688	627.345276
683.945312	634.591675
682.585938	610.571228
681.226562	604.946777
679.867188	617.708435
678.505859	582.675171
677.146484	613.813843
675.785156	626.567078
674.425781	589.713684
673.064453	641.039185
671.703125	653.780762
670.341797	605.925232
668.978516	567.265747
667.617188	620.394165
666.255859	638.635742
664.892578	603.660583
663.529297	632.905640
662.166016	618.119873
660.802734	581.333069
659.439453	588.564026
658.076172	586.626404
656.712891	610.349731
655.347656	626.734436
653.984375	654.106689
652.619141	613.688660
651.253906	635.558716
649.888672	642.770935
648.523438	595.052612
647.158203	593.116394
645.791016	629.616699
644.425781	592.905762
643.058594	598.289429
641.693359	609.158997
640.326172	625.511719
638.958984	581.512878
637.591797	627.117859
636.222656	586.790344
634.855469	619.584412
633.488281	632.265869
632.119141	643.115784
630.750000	621.081055
629.382812	599.054077
628.013672	611.730103
626.642578	666.393494
625.273438	553.099548
623.904297	633.305115
622.533203	576.624939
621.164062	598.415771
619.792969	616.550537
618.421875	589.084106
617.050781	619.978333
615.679688	614.398743
614.308594	630.694885
612.937500	579.552979
611.564453	568.516907
610.193359	573.881409
608.820312	613.852844
607.447266	573.677368
606.074219	564.470947
604.701172	600.781616
603.328125	573.371399
601.955078	604.207764
600.580078	578.626221
599.207031	600.354370
597.832031	585.696106
596.457031	605.596619
595.082031	603.670654
593.707031	576.293823
592.332031	592.550049
590.955078	605.165833
589.580078	619.594116
588.203125	594.050476
586.828125	595.761169
585.451172	608.367310
584.074219	626.416016
582.697266	640.827515
581.320312	579.001709
579.941406	587.972290
578.564453	598.754089
577.185547	571.436279
575.806641	598.540955
574.429688	565.792480
573.050781	589.262268
571.671875	594.595764
570.291016	592.677429
568.912109	559.953247
567.531250	561.665344
566.152344	594.172363
564.771484	635.723633
563.390625	604.825867
562.009766	590.233887
560.628906	573.836853
559.248047	600.882935
557.867188	582.680237
556.484375	546.391602
555.103516	551.721008
553.720703	591.411926
552.337891	607.580994
550.955078	583.969360
549.572266	554.943176
548.189453	571.110046
546.804688	547.517456
545.421875	574.519836
544.037109	594.287231
542.652344	565.284973
541.269531	594.075439
539.884766	565.083435
538.498047	527.076538
537.113281	557.663086
535.728516	575.607788
534.341797	521.382385
532.957031	555.561035
531.570312	593.334412
530.183594	567.984802
528.796875	544.447083
527.410156	560.572327
526.023438	520.824768
524.634766	500.911652
523.248047	547.661804
521.859375	579.985657
520.470703	556.470764
519.083984	529.363220
517.695312	583.275757
516.304688	548.973328
514.916016	566.871338
513.527344	557.773804
512.136719	550.478455
510.748047	548.581604
509.357422	537.693848
507.966797	542.991882
506.576172	519.525269
505.185547	558.974121
503.792969	553.483276
502.402344	547.994385
501.009766	546.100159
499.619141	551.390869
498.226562	551.292419
496.833984	517.080994
495.441406	552.890625
494.048828	506.127655
492.654297	563.459900
491.261719	536.447205
489.867188	543.526672
488.474609	527.288147
487.080078	528.987122
485.685547	543.235474
484.291016	571.819031
482.896484	552.002502
481.500000	568.030945
480.105469	542.847351
478.708984	485.430206
477.314453	535.489624
475.917969	533.603333
474.521484	556.781799
473.125000	524.462769
471.728516	527.948303
470.330078	547.536682
468.933594	536.704712
467.535156	540.186157
466.136719	518.629089
464.740234	527.476624
463.341797	554.198364
461.941406	564.823792
460.542969	550.426025
459.144531	516.378784
457.744141	571.666687
456.345703	469.754517
454.945312	555.389832
453.544922	501.725494
452.144531	551.620850
450.744141	553.307007
449.343750	542.500793
447.941406	538.835266
446.541016	511.980316
445.138672	501.187225
443.736328	513.580383
442.333984	524.186157
440.931641	549.049194
439.529297	531.127808
438.126953	547.070679
436.722656	502.431000
435.320312	509.466492
433.916016	546.776978
432.511719	557.363403
431.107422	550.142029
429.703125	503.761566
428.298828	532.147522
426.894531	537.390564
425.488281	494.595428
424.083984	482.055267
422.677734	512.203125
421.271484	503.220612
419.865234	510.241882
418.458984	519.038147
417.052734	527.831177
415.646484	502.860199
414.238281	513.429565
412.830078	486.693756
411.423828	515.021545
410.015625	585.953979
408.607422	548.567688
407.199219	532.494568
405.789062	601.611084
404.380859	541.175476
402.970703	574.785034
401.562500	587.098022
400.152344	590.539551
398.742188	579.795288
397.332031	551.327209
395.921875	558.318176
394.511719	503.282318
393.099609	552.802612
391.689453	533.217163
390.277344	487.071167
388.865234	534.796814
387.453125	497.519714
386.041016	559.388000
384.628906	507.960663
383.216797	479.556274
381.802734	541.394470
380.390625	500.611633
378.976562	489.910065
377.562500	486.285553
376.148438	526.862183
374.734375	475.505035
373.320312	489.558594
371.904297	498.305969
370.490234	482.316010
369.074219	496.360748
367.658203	513.932556
366.242188	496.182617
364.826172	524.340881
363.410156	492.474243
361.994141	480.032074
360.578125	462.300842
359.160156	485.152313
357.742188	478.009735
356.326172	476.160339
354.908203	500.760223
353.490234	500.670319
352.070312	482.954346
350.652344	491.679077
349.234375	470.447083
347.814453	454.507660
346.394531	486.130188
344.974609	457.866455
343.554688	477.152008
342.134766	424.254547
340.714844	447.059326
339.294922	466.336365
337.873047	466.252563
336.453125	460.891418
335.031250	416.838318
333.609375	418.521912
332.187500	485.257507
330.765625	479.896729
329.341797	448.174622
327.919922	451.608521
326.496094	430.444366
325.074219	497.117798
323.650391	446.096191
322.226562	453.039856
320.802734	472.270599
319.378906	445.855621
317.953125	442.265411
316.529297	470.261200
315.103516	447.369568
313.679688	429.748352
312.253906	433.178589
310.828125	455.895447
309.402344	455.813446
307.974609	431.192078
306.548828	445.134491
305.121094	453.815338
303.695312	401.177673
302.267578	444.894318
300.839844	448.316742
299.412109	462.243439
297.984375	414.893890
296.556641	449.825043
295.126953	435.744293
293.699219	477.657745
292.269531	453.080933
290.839844	400.528412
289.410156	456.415283
287.980469	452.836304
286.550781	414.296844
285.119141	429.952209
283.689453	454.339233
282.257812	431.544556
280.828125	462.909790
279.396484	443.614746
277.964844	459.250671
276.531250	427.742035
275.099609	413.700409
273.667969	417.116425
272.234375	427.510925
270.802734	406.498383
269.369141	411.658112
267.935547	435.999939
266.501953	428.946655
265.066406	432.356110
263.632812	420.076813
262.199219	390.374481
260.763672	442.576996
259.328125	423.333984
257.892578	381.454468
256.457031	407.507996
255.021484	426.587463
253.585938	403.879395
252.150391	462.985138
250.712891	455.940765
249.275391	440.199280
247.839844	396.629822
246.402344	429.604828
244.964844	406.920654
243.525391	410.324615
242.087891	385.913727
240.650391	439.723236
239.210938	424.004425
237.771484	432.615021
236.332031	432.536987
234.892578	404.670410
233.453125	420.225647
232.013672	407.996735
230.574219	400.979767
229.132812	385.287659
227.693359	404.305511
226.251953	373.004303
224.810547	445.789795
223.369141	404.086670
221.927734	383.206177
220.484375	379.669708
219.042969	419.467957
217.599609	382.998718
216.156250	407.187561
214.714844	407.114044
213.271484	382.791321
211.826172	393.112854
210.382812	375.727264
208.939453	363.541351
207.494141	377.322418
206.050781	372.062683
204.605469	366.804871
203.160156	384.037598
201.714844	380.509064
200.269531	363.147583
198.822266	378.642670
197.376953	361.287750
195.929688	375.049194
194.484375	368.069336
193.037109	371.458252
191.589844	386.937744
190.142578	402.411621
188.693359	378.164032
187.246094	379.822144
185.796875	371.122742
184.349609	393.491577
182.900391	381.341766
181.451172	410.601501
180.001953	413.977081
178.552734	367.338257
177.101562	360.374725
175.652344	327.554138
174.201172	348.178802
172.750000	411.879639
171.300781	373.898407
169.849609	347.989960
168.396484	375.485596
166.945312	358.196686
165.494141	375.349762
164.041016	377.003357
162.589844	330.463684
161.136719	352.775024
159.683594	326.903046
158.230469	340.605743
156.775391	359.463257
155.322266	352.519775
153.869141	369.648956
152.414062	355.830170
150.958984	324.829620
149.503906	336.799377
148.048828	331.584259
146.593750	295.451660
145.138672	324.594513
143.681641	345.141174
142.226562	324.476990
140.769531	331.284241
139.312500	329.508057
137.855469	355.186554
136.398438	320.810913
134.941406	317.322296
133.484375	303.545258
132.025391	291.487854
130.566406	317.149933
129.109375	315.378448
127.650391	311.893921
126.191406	310.124023
124.730469	296.363190
123.271484	323.713837
121.812500	306.530579
120.351562	301.338593
118.890625	304.707672
