#Wave		#Intensity
2199.140625	705.715393
2198.041016	662.461853
2196.943359	662.350769
2195.845703	621.276367
2194.746094	664.403870
2193.646484	648.367615
2192.548828	696.025269
2191.449219	641.327393
2190.349609	598.017090
2189.250000	668.393616
2188.150391	643.277710
2187.050781	656.805847
2185.949219	636.244934
2184.849609	661.129272
2183.748047	651.932190
2182.648438	638.195801
2181.546875	617.651672
2180.445312	631.170410
2179.343750	651.494568
2178.244141	653.654846
2177.140625	619.506348
2176.039062	628.477844
2174.937500	619.298340
2173.835938	698.578308
2172.732422	646.303223
2171.630859	666.600830
2170.527344	693.692566
2169.423828	657.310669
2168.322266	632.271973
2167.218750	657.089905
2166.115234	679.634033
2165.011719	629.688477
2163.906250	672.611755
2162.802734	629.476990
2161.699219	661.066223
2160.593750	665.482300
2159.490234	649.528320
2158.384766	676.572632
2157.279297	671.934204
2156.173828	667.297302
2155.068359	676.231750
2153.962891	635.415405
2152.857422	662.439270
2151.751953	655.546448
2150.646484	641.875549
2149.539062	639.507996
2148.433594	691.365906
2147.326172	623.480164
2146.218750	664.030334
2145.111328	652.627625
2144.003906	704.448425
2142.896484	697.557617
2141.789062	656.812805
2140.681641	679.269531
2139.574219	634.028748
2138.464844	633.922180
2137.357422	647.349060
2136.248047	638.219482
2135.140625	671.934387
2134.031250	617.715027
2132.921875	635.643616
2131.812500	635.536743
2130.703125	712.041992
2129.593750	648.840576
2128.484375	662.246704
2127.373047	680.152649
2126.263672	662.023987
2125.152344	632.644470
2124.042969	630.287048
2122.931641	666.191406
2121.820312	625.574524
2120.708984	623.219421
2119.597656	627.613647
2118.486328	611.764160
2117.375000	652.138794
2116.263672	643.035645
2115.150391	638.431458
2114.039062	658.552612
2112.925781	656.194580
2111.814453	631.368713
2110.701172	676.192200
2109.587891	651.371277
2108.474609	691.684814
2107.361328	633.189270
2106.248047	637.572693
2105.132812	655.422180
2104.019531	657.556091
2102.906250	691.103027
2101.791016	634.900146
2100.675781	666.196533
2099.562500	645.900024
2098.447266	632.337341
2097.332031	636.714783
2096.216797	650.057068
2095.101562	674.600830
2093.986328	649.838257
2092.869141	660.931091
2091.753906	669.780090
2090.636719	638.311646
2089.521484	653.879395
2088.404297	671.680786
2087.287109	655.897766
2086.169922	631.167358
2085.052734	626.585449
2083.935547	707.027344
2082.818359	655.456116
2081.701172	679.949158
2080.582031	635.108643
2079.464844	605.934753
2078.345703	659.485779
2077.228516	670.550537
2076.109375	652.559265
2074.990234	654.683716
2073.871094	618.828857
2072.751953	625.425598
2071.632812	701.251953
2070.513672	663.174316
2069.392578	634.039673
2068.273438	622.772034
2067.152344	600.349304
2066.033203	582.396912
2064.912109	620.226257
2063.791016	651.350891
2062.669922	633.398926
2061.548828	610.993164
2060.427734	630.955933
2059.306641	644.224487
2058.185547	693.148987
2057.062500	637.322144
2055.941406	626.074646
2054.818359	632.652039
2053.695312	636.999939
2052.574219	610.169800
2051.451172	645.691284
2050.328125	663.391602
2049.205078	645.473572
2048.082031	636.463196
2046.957031	667.506165
2045.833984	647.371826
2044.708984	713.990784
2043.585938	669.392456
2042.460938	642.597351
2041.335938	658.050964
2040.212891	655.717224
2039.087891	673.385803
2037.962891	617.721741
2036.835938	624.282471
2035.710938	635.283569
2034.585938	655.164490
2033.458984	681.700195
2032.333984	610.540527
2031.207031	650.393433
2030.080078	665.819458
2028.955078	670.145203
2027.828125	614.565918
2026.701172	674.355652
2025.574219	672.023987
2024.445312	694.085815
2023.318359	609.716919
2022.191406	638.432129
2021.062500	638.324402
2019.933594	627.136536
2018.806641	624.815063
2017.677734	646.862427
2016.548828	635.678711
2015.419922	626.713257
2014.291016	659.819885
2013.162109	617.646545
2012.031250	659.597168
2010.902344	637.355408
2009.773438	716.903809
2008.642578	650.414001
2007.511719	701.178284
2006.382812	656.828979
2005.251953	658.929260
2004.121094	623.445251
2002.990234	658.706787
2001.857422	674.065918
2000.726562	629.758484
1999.595703	660.582397
1998.462891	680.351257
1997.332031	627.230896
1996.199219	618.292236
1995.066406	604.940918
1993.933594	646.780090
1992.802734	624.600159
1991.667969	606.841125
1990.535156	639.833435
1989.402344	630.901550
1988.269531	639.617249
1987.134766	626.277954
1986.001953	674.678467
1984.867188	637.088684
1983.732422	654.613708
1982.599609	619.243652
1981.464844	623.545715
1980.330078	634.455200
1979.193359	627.740173
1978.058594	665.071899
1976.923828	660.555786
1975.787109	620.817505
1974.652344	625.114807
1973.515625	673.425293
1972.380859	609.500916
1971.244141	624.797852
1970.107422	626.891846
1968.970703	587.199402
1967.833984	622.282104
1966.695312	611.184387
1965.558594	646.251221
1964.421875	685.701660
1963.283203	621.861389
1962.146484	637.135376
1961.007812	595.291321
1959.869141	628.134766
1958.730469	625.832642
1957.591797	603.771484
1956.453125	627.816162
1955.314453	649.657837
1954.175781	563.965637
1953.035156	645.049988
1951.896484	644.940918
1950.755859	649.218384
1949.615234	603.056946
1948.476562	635.843384
1947.335938	692.732788
1946.195312	648.779175
1945.054688	688.115540
1943.914062	620.075623
1942.771484	652.831299
1941.630859	633.007812
1940.488281	641.660583
1939.347656	643.741577
1938.205078	632.686462
1937.062500	641.334839
1935.919922	632.472351
1934.777344	662.998901
1933.634766	614.756287
1932.492188	594.965881
1931.349609	588.304138
1930.207031	662.550110
1929.062500	688.673096
1927.919922	601.120789
1926.775391	664.399170
1925.630859	614.028137
1924.486328	587.706787
1923.341797	616.004639
1922.197266	624.636536
1921.052734	591.775635
1919.908203	604.775269
1918.761719	637.416870
1917.617188	615.483276
1916.470703	635.018738
1915.326172	641.456665
1914.179688	643.529480
1913.033203	601.979858
1911.886719	638.950073
1910.740234	584.333130
1909.593750	619.113831
1908.447266	562.339111
1907.298828	629.800232
1906.152344	610.083679
1905.003906	596.909363
1903.857422	618.589539
1902.708984	579.284973
1901.560547	592.251160
1900.412109	613.921082
1899.263672	648.643494
1898.115234	600.655273
1896.964844	617.960815
1895.816406	643.962646
1894.667969	635.152771
1893.517578	630.695496
1892.367188	626.239746
1891.218750	619.611328
1890.068359	665.154114
1888.917969	582.454529
1887.767578	595.393616
1886.617188	630.054260
1885.464844	606.052917
1884.314453	553.825378
1883.164062	616.704895
1882.011719	571.006592
1880.859375	625.178772
1879.708984	618.561584
1878.556641	611.946594
1877.404297	629.200073
1876.251953	577.030457
1875.099609	655.013672
1873.945312	618.037231
1872.792969	594.082336
1871.640625	587.478149
1870.486328	626.392517
1869.332031	582.944641
1868.179688	615.346497
1867.025391	619.574768
1865.871094	630.299500
1864.716797	636.689392
1863.562500	612.763733
1862.406250	610.494873
1861.251953	636.365356
1860.095703	579.989685
1858.941406	608.020325
1857.785156	638.204834
1856.630859	601.324829
1855.474609	666.102966
1854.318359	601.120728
1853.162109	624.800049
1852.003906	616.047668
1850.847656	598.653503
1849.691406	626.642761
1848.533203	583.326965
1847.376953	628.590088
1846.218750	609.045715
1845.060547	621.898560
1843.904297	572.135864
1842.746094	651.908264
1841.585938	604.315613
1840.427734	612.844604
1839.269531	621.370728
1838.111328	640.679688
1836.951172	614.689270
1835.792969	631.836365
1834.632812	625.260803
1833.472656	651.023071
1832.312500	620.737732
1831.152344	601.237549
1829.992188	603.289978
1828.832031	618.267212
1827.671875	639.700928
1826.509766	587.908020
1825.349609	663.168152
1824.187500	632.916565
1823.027344	596.218018
1821.865234	621.941284
1820.703125	669.172546
1819.541016	606.670715
1818.378906	628.077087
1817.216797	615.066833
1816.052734	662.267090
1814.890625	634.206421
1813.728516	651.294556
1812.564453	679.122437
1811.400391	612.395508
1810.238281	625.181763
1809.074219	616.483398
1807.910156	622.821533
1806.746094	614.126465
1805.580078	616.169006
1804.416016	648.262695
1803.251953	577.327881
1802.085938	594.396362
1800.921875	624.331909
1799.755859	628.515930
1798.589844	549.053650
1797.423828	624.013428
1796.257812	619.619263
1795.091797	602.364685
1793.925781	655.844299
1792.757812	606.445618
1791.591797	604.199890
1790.423828	621.234619
1789.257812	601.852539
1788.089844	595.325745
1786.921875	601.647766
1785.753906	646.500732
1784.585938	650.671448
1783.417969	631.300720
1782.250000	637.612183
1781.082031	616.110962
1779.912109	635.256287
1778.744141	613.762756
1777.574219	645.731018
1776.404297	647.758911
1775.234375	662.610840
1774.066406	617.619141
1772.894531	581.189697
1771.724609	625.954346
1770.554688	647.207764
1769.384766	621.469971
1768.212891	640.581604
1767.042969	606.314026
1765.871094	599.807129
1764.699219	597.570862
1763.527344	629.476379
1762.355469	599.500793
1761.183594	610.064148
1760.011719	577.969360
1758.839844	622.650574
1757.667969	573.508484
1756.494141	624.570129
1755.322266	624.463745
1754.148438	596.655518
1752.974609	634.903809
1751.800781	626.274902
1750.626953	570.792786
1749.453125	621.802612
1748.279297	606.792969
1747.105469	632.234436
1745.929688	619.356445
1744.755859	580.946716
1743.580078	642.549500
1742.404297	625.421753
1741.230469	655.092102
1740.054688	620.955505
1738.878906	580.451904
1737.703125	618.617981
1736.525391	620.638062
1735.349609	622.657349
1734.173828	543.935547
1732.996094	607.574402
1731.818359	635.083130
1730.642578	609.490906
1729.464844	620.003540
1728.287109	630.512512
1727.109375	662.243652
1725.931641	653.641846
1724.751953	596.240417
1723.574219	621.596619
1722.396484	646.944153
1721.216797	606.539246
1720.037109	617.037842
1718.859375	608.452454
1717.679688	616.827393
1716.500000	606.125549
1715.320312	593.308411
1714.140625	605.918823
1712.958984	633.352539
1711.779297	597.240601
1710.597656	592.903687
1709.417969	556.810974
1708.236328	611.752502
1707.054688	620.113831
1705.875000	590.383057
1704.693359	586.050903
1703.509766	662.103394
1702.328125	594.310852
1701.146484	640.731201
1699.964844	625.821960
1698.781250	596.120544
1697.597656	657.311523
1696.416016	669.878418
1695.232422	644.410217
1694.048828	593.601196
1692.865234	616.732910
1691.681641	603.957214
1690.496094	622.856506
1689.312500	620.639160
1688.128906	618.422546
1686.943359	614.096313
1685.757812	599.221924
1684.574219	586.462158
1683.388672	565.269836
1682.203125	643.200989
1681.017578	626.223145
1679.832031	583.953491
1678.644531	609.147034
1677.458984	602.720764
1676.273438	644.758911
1675.085938	602.514893
1673.898438	631.900635
1672.710938	612.838928
1671.525391	585.361206
1670.337891	627.366333
1669.148438	620.944458
1667.960938	591.374817
1666.773438	643.878235
1665.585938	614.314758
1664.396484	639.451294
1663.207031	603.589294
1662.019531	592.972473
1660.830078	576.052124
1659.640625	632.708191
1658.451172	617.888428
1657.261719	607.276306
1656.070312	598.768738
1654.880859	619.672180
1653.691406	541.857971
1652.500000	619.460327
1651.308594	606.757385
1650.119141	617.149414
1648.927734	596.056030
1647.736328	608.544678
1646.544922	621.029053
1645.351562	627.216003
1644.160156	583.064270
1642.968750	520.054749
1641.775391	578.671631
1640.583984	597.439148
1639.390625	570.090027
1638.197266	588.852539
1637.003906	609.703857
1635.810547	613.789246
1634.617188	617.873169
1633.423828	592.638000
1632.230469	565.317566
1631.035156	623.836365
1629.841797	613.264343
1628.646484	619.437500
1627.451172	569.115479
1626.255859	596.213806
1625.060547	541.729614
1623.865234	593.918457
1622.669922	635.634949
1621.474609	583.262451
1620.277344	606.154724
1619.082031	591.422180
1617.884766	649.826172
1616.689453	614.199951
1615.492188	620.361084
1614.294922	593.105713
1613.097656	641.029175
1611.900391	605.428772
1610.703125	571.927856
1609.503906	584.351746
1608.306641	575.905212
1607.107422	563.289062
1605.910156	602.824707
1604.710938	579.780518
1603.511719	588.021973
1602.312500	610.854309
1601.113281	608.665222
1599.914062	573.131042
1598.714844	631.378052
1597.513672	566.684509
1596.314453	591.583984
1595.113281	574.821167
1593.912109	599.710632
1592.712891	557.968445
1591.511719	626.566101
1590.310547	609.808716
1589.109375	582.652466
1587.906250	595.035889
1586.705078	569.971680
1585.503906	601.071472
1584.300781	576.014771
1583.097656	586.311646
1581.896484	638.180237
1580.693359	604.816345
1579.490234	600.556580
1578.287109	625.385986
1577.083984	614.892090
1575.878906	585.708923
1574.675781	591.838379
1573.470703	639.491089
1572.267578	572.952209
1571.062500	635.120728
1569.857422	541.627747
1568.652344	614.154480
1567.447266	582.931824
1566.242188	593.202515
1565.037109	630.428772
1563.832031	615.806702
1562.625000	553.509033
1561.419922	619.740906
1560.212891	586.476868
1559.005859	592.592285
1557.798828	606.992188
1556.591797	592.388977
1555.384766	615.067627
1554.177734	585.973999
1552.970703	602.435303
1551.761719	573.353760
1550.554688	562.907776
1549.345703	583.502808
1548.138672	599.953064
1546.929688	601.918579
1545.720703	599.747192
1544.511719	541.747559
1543.302734	580.934875
1542.091797	632.510864
1540.882812	599.335510
1539.673828	599.232666
1538.462891	572.272217
1537.251953	580.436462
1536.042969	578.271545
1534.832031	574.042480
1533.621094	553.298401
1532.410156	553.203430
1531.197266	542.789246
1529.986328	557.140442
1528.775391	616.875488
1527.562500	604.392883
1526.351562	614.601196
1525.138672	577.378479
1523.925781	591.711243
1522.712891	606.039124
1521.500000	614.179077
1520.287109	601.709656
1519.074219	570.701843
1517.859375	585.023438
1516.646484	582.863342
1515.431641	593.059326
1514.216797	535.308777
1513.003906	578.445862
1511.789062	584.520996
1510.574219	584.420532
1509.359375	633.699280
1508.142578	631.533264
1506.927734	584.119324
1505.712891	561.398438
1504.496094	553.077759
1503.279297	579.706787
1502.064453	620.713989
1500.847656	565.122559
1499.630859	569.134705
1498.414062	560.819702
1497.195312	564.831116
1495.978516	540.091064
1494.761719	574.903076
1493.542969	509.112305
1492.326172	595.230530
1491.107422	593.076050
1489.888672	592.974060
1488.669922	564.151611
1487.451172	623.536743
1486.232422	566.008362
1485.013672	606.919006
1483.792969	539.163025
1482.574219	530.871460
1481.353516	569.717712
1480.132812	594.207581
1478.914062	612.543091
1477.693359	565.327148
1476.472656	604.140625
1475.251953	573.322937
1474.029297	577.318726
1472.808594	558.797485
1471.587891	591.445740
1470.365234	532.004944
1469.142578	621.929504
1467.921875	582.958557
1466.699219	564.452209
1465.476562	588.892212
1464.253906	586.746399
1463.029297	576.425110
1461.806641	535.451721
1460.583984	531.272827
1459.359375	580.213501
1458.134766	563.772339
1456.912109	594.309814
1455.687500	569.704102
1454.462891	581.855591
1453.238281	545.012939
1452.013672	614.309509
1450.787109	550.946838
1449.562500	585.535278
1448.335938	560.956299
1447.111328	601.649475
1445.884766	609.702393
1444.658203	589.209534
1443.431641	552.416199
1442.205078	568.625671
1440.978516	570.565430
1439.751953	588.803589
1438.525391	596.850281
1437.296875	578.417297
1436.070312	549.809021
1434.841797	588.397888
1433.613281	614.759644
1432.384766	580.054016
1431.156250	584.023926
1429.927734	526.955139
1428.699219	602.130615
1427.468750	551.179993
1426.240234	581.587830
1425.009766	599.786133
1423.781250	522.435486
1422.550781	581.287109
1421.320312	631.989929
1420.089844	601.404419
1418.859375	623.646362
1417.628906	576.824158
1416.396484	592.970459
1415.166016	613.171936
1413.935547	609.006165
1412.703125	531.773682
1411.470703	570.239014
1410.238281	602.604187
1409.005859	570.042358
1407.773438	602.396362
1406.541016	577.957397
1405.308594	618.409119
1404.074219	535.186340
1402.841797	577.658325
1401.607422	597.823853
1400.373047	591.642212
1399.140625	579.385193
1397.906250	595.489014
1396.671875	589.310913
1395.435547	577.060547
1394.201172	556.716736
1392.966797	609.246582
1391.730469	607.117737
1390.496094	627.246704
1389.259766	588.700928
1388.023438	594.667297
1386.787109	550.073425
1385.550781	562.110352
1384.314453	586.272888
1383.078125	588.192932
1381.839844	598.196045
1380.603516	579.907532
1379.365234	602.029968
1378.128906	559.508423
1376.890625	609.900208
1375.652344	605.756531
1374.414062	587.482361
1373.175781	571.232971
1371.935547	617.551575
1370.697266	579.106812
1369.458984	564.884705
1368.218750	558.735779
1366.978516	532.421570
1365.740234	578.706787
1364.500000	604.815491
1363.259766	526.098572
1362.019531	560.268677
1360.777344	562.186890
1359.537109	608.426880
1358.294922	553.935364
1357.054688	571.965332
1355.812500	533.607788
1354.570312	591.900269
1353.330078	557.578369
1352.087891	599.745972
1350.843750	535.251160
1349.601562	549.241760
1348.359375	607.481140
1347.115234	551.063110
1345.873047	571.076111
1344.628906	591.082214
1343.384766	597.010437
1342.142578	544.652710
1340.898438	584.747375
1339.654297	550.491638
1338.408203	568.475159
1337.164062	566.368469
1335.919922	598.399353
1334.673828	632.426819
1333.427734	590.162903
1332.183594	549.920654
1330.937500	531.765564
1329.691406	575.812500
1328.445312	567.689026
1327.197266	575.613281
1325.951172	539.418762
1324.705078	561.379639
1323.457031	555.268799
1322.208984	583.231995
1320.962891	587.138794
1319.714844	558.987671
1318.466797	530.846191
1317.218750	552.785645
1315.970703	552.690002
1314.720703	550.592163
1313.472656	558.504089
1312.222656	562.410339
1310.974609	536.298523
1309.724609	562.215637
1308.474609	516.108643
1307.224609	566.021118
1305.974609	543.926086
1304.724609	559.826965
1303.472656	529.744507
1302.222656	559.633118
1300.972656	507.579285
1299.720703	523.475342
1298.468750	535.370605
1297.216797	551.256348
1295.964844	575.124390
1294.712891	555.058594
1293.460938	604.869141
1292.208984	610.752136
1290.955078	578.717102
1289.703125	538.712280
1288.449219	578.516602
1287.195312	558.471008
1285.943359	574.327759
1284.689453	614.105225
1283.433594	582.102783
1282.179688	554.097717
1280.925781	550.016052
1279.671875	577.815247
1278.416016	547.833313
1277.160156	517.861694
1275.906250	527.729065
1274.650391	545.557373
1273.394531	551.435059
1272.138672	533.425903
1270.880859	543.283630
1269.625000	577.014465
1268.369141	529.169739
1267.111328	541.012085
1265.855469	596.601074
1264.597656	544.801147
1263.339844	530.790833
1262.082031	558.525635
1260.824219	548.492310
1259.566406	609.992554
1258.306641	574.127930
1257.048828	534.303162
1255.789062	538.182312
1254.531250	504.334320
1253.271484	551.892212
1252.011719	543.856934
1250.751953	545.747131
1249.492188	549.620789
1248.232422	569.363892
1246.970703	583.149597
1245.710938	539.418945
1244.449219	499.669067
1243.189453	561.038879
1241.927734	521.299011
1240.666016	544.989929
1239.404297	564.709717
1238.142578	511.122162
1236.880859	554.609924
1235.617188	574.317688
1234.355469	536.596863
1233.091797	582.037170
1231.830078	556.204285
1230.566406	560.065735
1229.302734	548.096375
1228.039062	522.282776
1226.775391	559.774048
1225.511719	516.168396
1224.246094	603.080566
1222.982422	569.367310
1221.716797	547.525513
1220.453125	557.311829
1219.187500	547.335327
1217.921875	521.557495
1216.656250	570.848267
1215.390625	558.899597
1214.125000	539.056824
1212.857422	568.576538
1211.591797	552.686707
1210.324219	556.537781
1209.058594	572.226624
1207.791016	589.882874
1206.523438	544.412598
1205.255859	550.234497
1203.988281	577.744385
1202.718750	536.242859
1201.451172	565.716736
1200.183594	539.998047
1198.914062	530.051941
1197.644531	561.481567
1196.375000	553.504883
1195.105469	543.561523
1193.835938	555.281494
1192.566406	566.997437
1191.296875	560.993652
1190.027344	541.215515
1188.755859	537.185974
1187.484375	550.864136
1186.214844	562.570557
1184.943359	554.605957
1183.671875	546.644104
1182.400391	574.073059
1181.128906	554.316589
1179.855469	550.289490
1178.583984	546.263855
1177.310547	536.345642
1176.039062	571.609619
1174.765625	526.339233
1173.492188	557.665405
1172.218750	539.898987
1170.945312	553.545532
1169.671875	516.160034
1168.398438	514.107971
1167.123047	561.104187
1165.849609	551.198730
1164.574219	582.482300
1163.298828	537.280701
1162.023438	570.516296
1160.748047	554.735413
1159.472656	523.281189
1158.197266	531.028137
1156.921875	491.752228
1155.644531	532.802063
1154.369141	542.501709
1153.091797	571.779480
1151.814453	540.354980
1150.537109	514.813843
1149.259766	524.509827
1147.982422	557.683777
1146.705078	545.848022
1145.427734	545.752930
1144.148438	567.171265
1142.871094	557.295349
1141.591797	576.749084
1140.312500	531.689575
1139.033203	539.414490
1137.753906	549.090820
1136.474609	576.347229
1135.195312	560.619751
1133.914062	539.038635
1132.634766	560.424377
1131.353516	536.898438
1130.072266	525.092773
1128.791016	532.807983
1127.511719	542.471802
1126.228516	585.299133
1124.947266	546.183960
1123.666016	563.641602
1122.384766	549.893555
1121.101562	516.653809
1119.818359	522.411621
1118.537109	522.320557
1117.253906	567.047668
1115.970703	526.034973
1114.687500	555.162292
1113.402344	549.222717
1112.119141	547.179688
1110.835938	535.402710
1109.550781	556.721680
1108.265625	546.893372
1106.982422	552.635681
1105.697266	525.301453
1104.412109	525.209839
1103.126953	544.567017
1101.839844	538.638367
1100.554688	556.042236
1099.267578	528.731079
1097.982422	546.130554
1096.695312	522.717041
1095.408203	534.282898
1094.121094	551.672241
1092.833984	576.824158
1091.546875	592.258118
1090.259766	531.968506
1088.970703	522.169922
1087.683594	557.013367
1086.394531	518.106628
1085.107422	550.998535
1083.818359	527.624756
1082.529297	498.440765
1081.240234	509.988434
1079.949219	550.613770
1078.660156	554.394531
1077.371094	565.926331
1076.080078	532.885498
1074.789062	482.419342
1073.500000	528.825195
1072.208984	511.302094
1070.917969	507.339966
1069.626953	538.228516
1068.333984	526.520081
1067.042969	526.428101
1065.750000	539.881531
1064.458984	532.048340
1063.166016	545.496033
1061.873047	512.521973
1060.580078	520.167236
1059.287109	533.609924
1057.994141	506.454224
1056.701172	512.163818
1055.406250	521.736084
1054.113281	508.120758
1052.818359	540.870483
1051.525391	519.531189
1050.230469	546.474426
1048.935547	517.418884
1047.640625	528.910400
1046.343750	548.117859
1045.048828	493.991699
1043.753906	520.915771
1042.457031	530.469604
1041.160156	543.877319
1039.865234	530.284058
1038.568359	512.839600
1037.271484	533.953857
1035.974609	510.732971
1034.675781	545.328857
1033.378906	522.114014
1032.080078	525.875244
1030.783203	520.005432
1029.484375	535.319336
1028.185547	502.496063
1026.886719	498.558258
1025.587891	556.208984
1024.289062	554.187378
1022.990234	531.003296
1021.689453	544.375488
1020.390625	513.508240
1019.089844	534.570435
1017.789062	484.489807
1016.488281	492.093994
1015.187500	561.196472
1013.886719	499.608002
1012.585938	543.708862
1011.285156	509.037567
1009.982422	510.869019
1008.681641	543.423401
1007.378906	547.168030
1006.076172	508.681152
1004.773438	510.511292
1003.470703	512.340759
1002.167969	518.006714
1000.865234	517.915955
999.560547	546.593323
998.257812	502.394287
996.953125	515.726685
995.648438	544.389282
994.343750	511.712952
993.039062	526.952820
991.734375	498.122681
990.429688	544.007874
989.125000	511.354431
987.818359	490.201508
986.513672	511.175262
985.207031	484.287170
983.900391	478.460785
982.593750	528.128113
981.287109	529.948730
979.980469	529.855835
978.673828	537.412964
977.365234	558.352600
976.058594	498.987946
974.750000	519.926941
973.443359	548.503174
972.134766	481.528137
970.826172	485.264679
969.517578	529.113159
968.207031	519.471313
966.898438	502.194824
965.589844	507.834198
964.279297	521.106873
962.968750	561.093567
961.658203	511.383362
960.349609	501.754578
959.039062	461.609558
957.726562	514.928589
956.416016	549.160767
955.105469	470.899017
953.792969	535.625122
952.482422	503.132477
951.169922	506.855133
949.857422	485.809692
948.544922	527.630066
947.232422	533.250916
945.919922	514.115967
944.605469	554.005554
943.292969	466.348907
941.978516	540.489136
940.666016	521.366333
939.351562	530.787109
938.037109	498.357727
936.722656	509.681000
935.408203	503.887146
934.091797	486.688507
932.777344	478.999878
931.460938	490.318542
930.146484	526.334839
928.830078	497.745514
927.513672	507.155396
926.197266	510.864563
924.880859	493.685699
923.564453	504.989746
922.246094	453.651672
920.929688	538.972595
919.611328	531.288086
918.294922	493.252258
916.976562	527.307800
915.658203	502.561218
914.339844	519.538025
913.021484	502.384613
911.701172	509.878174
910.382812	536.320312
909.062500	486.961456
907.744141	469.825745
906.423828	509.519806
905.103516	520.793030
903.783203	499.873413
902.462891	469.495514
901.142578	494.019287
899.820312	520.426880
898.500000	529.796021
897.177734	493.758759
895.855469	510.695129
894.535156	503.040802
893.212891	484.044342
891.890625	544.454102
890.566406	508.445831
889.244141	487.568604
887.921875	491.261780
886.597656	481.729706
885.273438	472.200928
883.951172	523.106567
882.626953	506.021332
881.302734	502.156677
879.976562	451.106506
878.652344	484.995697
877.328125	484.910370
876.001953	469.733215
874.677734	499.828888
873.351562	503.512543
872.025391	482.683624
870.699219	518.416565
869.373047	493.822662
868.046875	499.389191
866.718750	459.734009
865.392578	472.839844
864.064453	489.708038
862.738281	506.570251
861.410156	472.590149
860.082031	502.626892
858.753906	432.898254
857.425781	500.568054
856.095703	468.494354
854.767578	472.174194
853.437500	496.541962
852.109375	466.366364
850.779297	532.090454
849.449219	466.202087
848.119141	488.674133
846.789062	481.071320
845.457031	499.775116
844.126953	490.294434
842.796875	503.355408
841.464844	478.854523
840.132812	512.565674
838.800781	544.387756
837.468750	506.754425
836.136719	487.899750
834.804688	500.947205
833.472656	474.596649
832.138672	498.895081
830.806641	480.054993
829.472656	500.594086
828.138672	485.509430
826.804688	502.291840
825.470703	485.338226
824.136719	507.735413
822.802734	477.674164
821.466797	515.047974
820.132812	486.868591
818.796875	503.632904
817.460938	451.130554
816.125000	454.794159
814.789062	475.297699
813.453125	507.019501
812.117188	484.482971
810.779297	495.619080
809.443359	456.263092
808.105469	478.617828
806.767578	502.833893
805.431641	510.220947
804.093750	517.605347
802.753906	476.411804
801.416016	478.195709
800.078125	479.978912
798.738281	517.240051
797.400391	492.878265
796.060547	472.258301
794.720703	483.372742
793.380859	522.472900
792.041016	496.261627
790.701172	468.194275
789.361328	477.436554
788.019531	481.081573
786.679688	451.167389
785.337891	467.863708
783.996094	482.690430
782.654297	443.475037
781.312500	489.972015
779.970703	441.455719
778.628906	471.175415
777.285156	472.954193
775.943359	463.562195
774.599609	472.787140
773.255859	450.371155
771.912109	472.620087
770.568359	470.676208
769.224609	505.934021
767.880859	464.930725
766.535156	477.864319
765.191406	453.612030
763.845703	479.554199
762.500000	451.593292
761.156250	471.952362
759.810547	468.153442
758.462891	501.504303
757.117188	421.560577
755.771484	440.053711
754.423828	462.253174
753.078125	464.027557
751.730469	508.484283
750.382812	463.863495
749.035156	448.940460
747.687500	434.022705
746.339844	506.270264
744.990234	443.139893
743.642578	444.915344
742.292969	467.078491
740.945312	424.373230
739.595703	437.267975
738.246094	405.698059
736.896484	472.304596
735.546875	416.665619
734.195312	444.364685
732.845703	468.351562
731.494141	449.760040
730.144531	420.071869
728.792969	495.856110
727.441406	434.722260
726.089844	434.645325
724.738281	441.965302
723.384766	430.793671
722.033203	436.263153
720.679688	445.427155
719.328125	461.979553
717.974609	432.336304
716.621094	434.107025
715.267578	430.336304
713.914062	461.652466
712.558594	435.722748
711.205078	419.032013
709.849609	454.024750
708.496094	405.966492
707.140625	440.949097
705.785156	400.288727
704.429688	472.146393
703.074219	420.430878
701.718750	459.073456
700.361328	446.088715
699.005859	423.893524
697.648438	458.829498
696.291016	431.112762
694.935547	460.508942
693.578125	460.427338
692.218750	467.711273
690.861328	432.648315
689.503906	473.067719
688.144531	460.101013
686.787109	450.819092
685.427734	470.976440
684.068359	448.819855
682.708984	435.866577
681.349609	450.499512
679.990234	415.489136
678.628906	437.472900
677.269531	409.828400
675.908203	439.155243
674.548828	420.705933
673.187500	448.183594
671.826172	435.248657
670.464844	444.352295
669.101562	451.616852
667.740234	469.891907
666.378906	488.160431
665.015625	422.018738
663.652344	420.109314
662.289062	438.376923
660.925781	436.465271
659.562500	465.724792
658.199219	419.811249
656.835938	469.225372
655.470703	430.657776
654.107422	403.097443
652.742188	434.168793
651.376953	432.260132
650.011719	455.990112
648.646484	421.120911
647.281250	466.812042
645.916016	428.292664
644.548828	398.936859
643.181641	455.585510
641.816406	464.651276
640.449219	420.672516
639.082031	394.996216
637.714844	426.008209
636.347656	413.136292
634.978516	414.890625
633.611328	423.953888
632.242188	443.976257
630.875000	423.803284
629.505859	427.380829
628.136719	421.826630
626.767578	434.532043
625.398438	449.058350
624.027344	436.202759
622.658203	425.176514
621.287109	419.627533
619.917969	423.201263
618.546875	403.064056
617.175781	428.521332
615.804688	437.561035
614.431641	417.431946
613.060547	433.760437
611.689453	420.927948
610.316406	429.962494
608.943359	417.135193
607.572266	433.452087
606.199219	404.240540
604.826172	415.092163
603.451172	433.220886
602.078125	385.825623
600.705078	414.870758
599.330078	423.893372
597.955078	401.990448
596.582031	440.110352
595.207031	410.939026
593.830078	385.414062
592.455078	403.522186
591.080078	423.441162
589.705078	437.902008
588.328125	399.673431
586.951172	417.766052
585.574219	401.347260
584.197266	394.012939
582.820312	393.942810
581.443359	379.352051
580.066406	417.394470
578.687500	424.577911
577.310547	380.963654
575.931641	406.288879
574.552734	413.470428
573.173828	409.770508
571.794922	400.633453
570.416016	422.312103
569.037109	402.302979
567.656250	427.597290
566.277344	436.578796
564.896484	398.465698
563.515625	402.016479
562.134766	423.671631
560.753906	394.632324
559.373047	394.562042
557.992188	372.776611
556.609375	358.236023
555.226562	379.879608
553.845703	394.280945
552.462891	379.744263
551.080078	350.748840
549.697266	370.570648
548.314453	386.770660
546.929688	392.122772
545.546875	404.699768
544.162109	415.465881
542.777344	384.688934
541.394531	371.980286
540.009766	400.800476
538.625000	407.949371
537.238281	447.581451
535.853516	393.368408
534.466797	425.772430
533.082031	402.247131
531.695312	387.747589
530.308594	400.300537
528.921875	384.003632
527.535156	410.972839
526.148438	409.097351
524.759766	412.628113
523.373047	398.142120
521.984375	387.263763
520.597656	369.185608
519.208984	428.539032
517.820312	401.458618
516.431641	385.187531
515.041016	368.922211
513.652344	379.652191
512.261719	352.599762
510.873047	370.523407
509.482422	386.642303
508.091797	391.967346
506.701172	368.527344
505.310547	397.219543
503.919922	332.454742
502.527344	373.720215
501.136719	420.360199
499.744141	348.441528
498.351562	411.231262
496.958984	377.044312
495.566406	353.640320
494.173828	393.062927
492.781250	373.253387
491.386719	378.569214
489.994141	394.646210
488.599609	407.130402
487.205078	372.986786
485.810547	349.612640
484.416016	349.550201
483.021484	365.617950
481.626953	378.096100
480.230469	378.028534
478.835938	386.917419
477.439453	376.102478
476.042969	381.407227
474.646484	383.129395
473.250000	366.950867
471.853516	354.357483
470.457031	352.504791
469.058594	354.230835
467.662109	375.632202
466.263672	357.681000
464.865234	396.954926
463.466797	352.189819
462.068359	359.276642
460.669922	348.489624
459.269531	380.589844
457.871094	366.229889
456.470703	357.233551
455.072266	353.597961
453.671875	380.317657
452.271484	374.894012
450.871094	364.117615
449.468750	371.190765
448.068359	363.987335
446.666016	371.057953
445.265625	370.991577
443.863281	383.408234
442.460938	369.075836
441.058594	363.661835
439.656250	356.467407
438.253906	379.569855
436.849609	377.720215
435.447266	350.931915
434.042969	341.963776
432.638672	359.709991
431.234375	345.402222
429.830078	370.261841
428.425781	373.755127
427.021484	338.098877
425.615234	409.204285
424.210938	377.112061
422.804688	336.138763
421.398438	369.864258
419.992188	327.128998
418.585938	371.509338
417.179688	362.556610
415.773438	369.599335
414.365234	353.543732
412.957031	376.572083
411.550781	346.313202
410.142578	376.437164
408.734375	367.493073
407.326172	413.577515
405.916016	385.108307
404.507812	390.362427
403.099609	388.518402
401.689453	431.018524
400.279297	395.472839
398.869141	391.855743
397.458984	358.102600
396.048828	375.763092
394.638672	361.518524
393.226562	372.084717
391.816406	356.074371
390.404297	350.696930
388.992188	370.113708
387.580078	343.488922
386.167969	338.116608
384.755859	362.834930
383.343750	337.995331
381.929688	362.704803
380.517578	359.101807
379.103516	344.888123
377.689453	355.436310
376.275391	339.460327
374.861328	364.147308
373.447266	325.199432
372.033203	348.113007
370.617188	321.549225
369.201172	317.958679
367.787109	326.732208
366.371094	331.970978
364.955078	330.145905
363.539062	340.677673
362.121094	315.908600
360.705078	335.261780
359.287109	342.258453
357.871094	315.738495
356.453125	306.863892
355.035156	315.625122
353.617188	296.175995
352.199219	319.037079
350.781250	329.553680
349.361328	296.016449
347.943359	334.720398
346.523438	311.762482
345.103516	352.210693
343.683594	318.693420
342.263672	302.792389
340.843750	348.500732
339.421875	307.962982
338.001953	336.059204
336.580078	299.056549
335.158203	332.420776
333.738281	320.051361
332.316406	332.301331
330.892578	332.241608
329.470703	305.818237
328.048828	311.035065
326.625000	284.625000
325.203125	328.489532
323.779297	307.354736
322.355469	321.347473
320.931641	319.533997
319.507812	307.188995
318.082031	287.828217
316.658203	293.040649
315.232422	301.760071
313.806641	284.164764
312.382812	298.143951
310.957031	343.680634
309.531250	306.802521
308.103516	301.488800
306.677734	317.207306
305.250000	299.628143
303.824219	282.055267
302.396484	292.514008
300.968750	309.974030
299.541016	295.910675
298.113281	341.373932
296.685547	294.053864
295.255859	322.001038
293.828125	292.198334
292.398438	248.411346
290.968750	321.827179
289.539062	272.804382
288.109375	302.478607
286.679688	279.698639
285.250000	295.378479
283.818359	311.052704
282.386719	310.996704
280.957031	286.484680
279.525391	274.207306
278.093750	303.843811
276.662109	260.141235
275.228516	296.751984
273.796875	289.717377
272.363281	260.000702
270.931641	280.889740
269.498047	286.072174
268.064453	308.692993
266.630859	280.737946
265.197266	247.562775
263.761719	287.609131
262.328125	324.155518
260.892578	280.535675
259.458984	301.390839
258.023438	276.950897
256.587891	301.282196
255.152344	297.745483
253.714844	299.432709
252.279297	269.788971
250.843750	302.805298
249.406250	295.790924
247.968750	269.643097
246.531250	295.684265
245.093750	293.891937
243.656250	288.622864
242.218750	290.309204
240.779297	285.042633
239.341797	300.631012
237.902344	269.302887
236.462891	274.465698
235.023438	298.731537
233.583984	279.576172
232.144531	286.470490
230.703125	260.380707
229.263672	267.275970
227.822266	274.168732
226.380859	261.974731
224.939453	248.050507
223.498047	267.083099
222.056641	267.034912
220.615234	282.589844
219.171875	270.405243
217.730469	280.754761
216.287109	254.712967
214.843750	242.539993
213.400391	292.727570
211.957031	275.356659
210.513672	271.843964
209.070312	271.794891
207.625000	287.323608
206.179688	276.888397
204.736328	264.726715
203.291016	243.919769
201.845703	266.360718
200.398438	264.583282
198.953125	274.909424
197.507812	278.317139
196.060547	266.168304
194.613281	250.567719
193.167969	274.710815
191.720703	243.567474
190.271484	221.070938
188.824219	262.474304
187.376953	250.341415
185.927734	260.653259
184.480469	251.976807
183.031250	265.735718
181.582031	255.336212
180.132812	260.464844
178.683594	281.113220
177.232422	246.576202
175.783203	243.083633
174.332031	241.315994
172.882812	229.208740
171.431641	237.782608
169.980469	272.194611
168.529297	242.863922
167.076172	263.485535
165.625000	254.828781
164.171875	256.504211
162.720703	256.457794
161.267578	244.365234
159.814453	266.688446
158.361328	216.752670
156.908203	240.792725
155.453125	239.029510
154.000000	238.986267
152.544922	242.381042
151.089844	247.493286
149.636719	228.546173
148.181641	247.403702
146.724609	243.923386
145.269531	228.422089
143.814453	209.492111
142.357422	228.339401
140.900391	224.865005
139.445312	205.945908
137.988281	236.794922
136.531250	205.871338
135.072266	217.841049
133.615234	222.946503
132.156250	183.468887
130.699219	202.293533
129.240234	219.397308
127.781250	200.506531
126.322266	210.750732
124.863281	222.704315
123.404297	205.535965
121.943359	226.048599
120.484375	222.583282
119.023438	246.509125
117.562500	207.098602
116.101562	222.462296
114.640625	227.554794
113.179688	200.143509
111.716797	203.527863
110.255859	222.301056
108.792969	193.195892
107.330078	177.776382
105.867188	184.580460
104.404297	176.003143
102.941406	129.842850
101.478516	126.403015
100.013672	126.380089
