#Wave		#Intensity
1999.057617	70754.632812
1998.089844	70700.382812
1997.122070	70223.140625
1996.154297	70737.718750
1995.186523	70666.000000
1994.217773	71056.406250
1993.249023	71010.460938
1992.280273	70783.890625
1991.311523	70503.210938
1990.341797	71133.273438
1989.373047	70870.679688
1988.403320	71103.312500
1987.433594	71101.226562
1986.463867	71006.335938
1985.494141	70906.320312
1984.524414	70777.992188
1983.553711	70907.359375
1982.583008	70709.507812
1981.613281	71122.164062
1980.641602	70978.421875
1979.670898	71439.796875
1978.700195	71651.304688
1977.728516	71342.812500
1976.756836	71276.320312
1975.785156	70975.710938
1974.813477	71717.078125
1973.841797	71347.046875
1972.869141	71586.617188
1971.897461	71401.859375
1970.924805	71523.070312
1969.952148	71631.398438
1968.979492	71117.773438
1968.005859	71154.179688
1967.033203	71855.929688
1966.059570	71871.640625
1965.085938	71828.273438
1964.112305	71679.656250
1963.138672	71392.453125
1962.165039	71315.820312
1961.190430	71495.843750
1960.215820	71691.187500
1959.242188	71745.367188
1958.266602	72066.281250
1957.291992	71743.390625
1956.317383	71548.820312
1955.341797	71246.640625
1954.366211	71626.351562
1953.390625	70947.546875
1952.415039	71050.453125
1951.439453	71560.648438
1950.463867	71650.601562
1949.487305	71753.320312
1948.510742	71884.171875
1947.534180	71477.375000
1946.557617	71137.257812
1945.580078	71815.789062
1944.603516	71831.382812
1943.625977	71880.226562
1942.648438	71660.484375
1941.670898	71934.382812
1940.693359	72203.062500
1939.715820	72216.007812
1938.737305	71845.546875
1937.758789	71769.101562
1936.780273	71409.062500
1935.801758	71636.718750
1934.823242	71473.492188
1933.844727	71445.679688
1932.865234	72091.929688
1931.885742	71655.554688
1930.906250	71329.078125
1929.926758	71635.601562
1928.947266	71765.953125
1927.966797	72169.226562
1926.986328	71623.523438
1926.006836	71343.234375
1925.026367	71935.031250
1924.044922	71374.359375
1923.064453	72322.781250
1922.083008	72124.093750
1921.102539	71831.203125
1920.121094	71316.781250
1919.139648	71727.109375
1918.157227	71750.210938
1917.175781	71872.601562
1916.193359	71959.304688
1915.211914	71503.843750
1914.229492	71672.007812
1913.246094	71873.187500
1912.263672	71552.796875
1911.281250	71970.117188
1910.297852	71410.765625
1909.314453	72125.445312
1908.331055	71741.664062
1907.347656	71373.265625
1906.363281	71775.000000
1905.379883	71348.281250
1904.395508	71859.101562
1903.411133	71546.804688
1902.426758	71440.312500
1901.442383	71478.585938
1900.458008	71773.234375
1899.472656	71567.765625
1898.487305	72009.476562
1897.501953	71839.554688
1896.516602	71484.500000
1895.531250	71479.585938
1894.544922	71971.710938
1893.559570	71553.429688
1892.573242	72083.382812
1891.586914	71264.757812
1890.599609	71455.000000
1889.613281	71457.679688
1888.625977	71675.687500
1887.639648	71804.960938
1886.652344	71496.085938
1885.665039	71648.132812
1884.676758	71053.335938
1883.689453	71683.765625
1882.701172	71438.382812
1881.713867	71519.476562
1880.725586	71651.125000
1879.736328	71330.000000
1878.748047	71327.609375
1877.759766	71590.687500
1876.770508	71535.164062
1875.781250	71234.484375
1874.791992	71201.781250
1873.802734	71833.570312
1872.812500	71341.007812
1871.823242	71596.218750
1870.833008	71346.281250
1869.842773	71427.187500
1868.852539	71409.609375
1867.862305	71142.164062
1866.871094	71568.765625
1865.880859	71541.078125
1864.889648	71634.468750
1863.898438	71029.195312
1862.907227	71210.898438
1861.915039	71531.210938
1860.923828	71914.429688
1859.931641	71233.906250
1858.939453	70853.492188
1857.947266	71614.546875
1856.955078	71533.960938
1855.961914	71304.804688
1854.969727	71226.812500
1853.976562	71614.625000
1852.983398	71312.562500
1851.990234	71471.187500
1850.997070	71486.320312
1850.002930	71531.640625
1849.008789	71758.054688
1848.014648	71861.140625
1847.020508	71551.796875
1846.026367	71765.507812
1845.032227	71189.820312
1844.037109	72097.195312
1843.042969	71740.265625
1842.047852	71682.437500
1841.051758	71858.242188
1840.056641	71883.296875
1839.061523	71649.687500
1838.065430	71278.070312
1837.069336	71752.531250
1836.073242	71526.593750
1835.077148	71601.851562
1834.081055	71973.132812
1833.083984	71952.953125
1832.086914	71997.992188
1831.090820	70942.179688
1830.092773	71711.945312
1829.095703	71934.968750
1828.098633	71689.242188
1827.100586	71761.835938
1826.102539	71709.132812
1825.104492	71796.726562
1824.106445	71716.476562
1823.108398	72026.890625
1822.109375	71340.750000
1821.111328	71606.062500
1820.112305	72053.968750
1819.113281	71428.234375
1818.113281	72006.109375
1817.114258	71930.914062
1816.114258	71905.757812
1815.115234	71483.015625
1814.115234	71750.453125
1813.115234	71745.328125
1812.114258	72055.109375
1811.114258	71537.671875
1810.113281	72354.539062
1809.112305	71539.976562
1808.111328	71609.804688
1807.110352	72129.070312
1806.109375	71781.835938
1805.107422	71604.453125
1804.105469	71531.953125
1803.103516	71644.132812
1802.101562	71616.546875
1801.099609	71910.750000
1800.096680	71928.023438
1799.094727	71426.625000
1798.091797	71653.390625
1797.088867	71441.359375
1796.085938	71710.398438
1795.082031	72071.539062
1794.079102	71266.609375
1793.075195	71617.726562
1792.071289	71667.375000
1791.067383	71809.132812
1790.063477	71609.765625
1789.058594	71607.109375
1788.053711	71768.703125
1787.049805	71094.187500
1786.044922	70937.367188
1785.039062	71442.242188
1784.034180	71039.210938
1783.028320	70907.335938
1782.023438	71899.210938
1781.017578	71198.023438
1780.011719	71168.085938
1779.004883	71473.585938
1777.999023	71061.015625
1776.992188	71505.523438
1775.985352	71098.054688
1774.978516	71515.078125
1773.971680	71306.351562
1772.964844	70933.875000
1771.957031	71134.796875
1770.950195	71104.882812
1769.942383	71047.695312
1768.934570	71449.382812
1767.925781	70958.164062
1766.917969	70662.984375
1765.909180	71106.671875
1764.900391	71188.320312
1763.891602	71054.328125
1762.882812	70680.046875
1761.874023	71210.109375
1760.864258	70645.210938
1759.854492	70749.140625
1758.844727	70612.859375
1757.834961	70288.476562
1756.825195	70862.679688
1755.815430	71174.359375
1754.804688	70622.414062
1753.793945	70647.062500
1752.783203	70622.226562
1751.772461	70634.492188
1750.760742	70965.703125
1749.750000	70708.445312
1748.738281	70611.929688
1747.726562	70478.375000
1746.714844	70651.242188
1745.703125	70206.460938
1744.690430	71246.234375
1743.678711	70245.882812
1742.666016	70902.578125
1741.653320	70174.171875
1740.640625	70781.281250
1739.626953	70485.000000
1738.614258	70023.507812
1737.600586	70728.992188
1736.586914	70499.453125
1735.573242	70336.578125
1734.558594	70038.156250
1733.544922	70471.960938
1732.530273	69998.625000
1731.515625	70242.539062
1730.500977	70754.914062
1729.486328	70552.734375
1728.471680	70402.343750
1727.456055	70320.953125
1726.440430	69899.828125
1725.424805	70283.796875
1724.409180	70099.093750
1723.393555	70305.710938
1722.376953	70357.250000
1721.360352	70248.875000
1720.344727	70312.703125
1719.328125	70782.234375
1718.310547	70184.585938
1717.293945	70351.617188
1716.276367	69751.789062
1715.258789	70343.945312
1714.241211	70392.929688
1713.223633	70080.796875
1712.206055	70213.304688
1711.187500	70380.140625
1710.169922	70227.757812
1709.151367	70311.070312
1708.132812	70121.929688
1707.113281	69994.195312
1706.094727	70347.359375
1705.075195	70433.031250
1704.055664	70447.554688
1703.036133	70351.718750
1702.016602	69836.687500
1700.997070	70020.429688
1699.976562	70569.257812
1698.956055	69873.132812
1697.935547	69929.359375
1696.915039	70051.703125
1695.894531	70320.945312
1694.873047	70406.437500
1693.852539	69539.570312
1692.831055	69720.632812
1691.809570	69962.804688
1690.788086	70305.210938
1689.765625	69776.578125
1688.743164	70268.093750
1687.721680	69436.390625
1686.699219	70230.984375
1685.676758	70000.968750
1684.653320	69883.468750
1683.630859	69724.468750
1682.607422	69499.539062
1681.583984	69719.312500
1680.560547	69851.070312
1679.537109	69882.656250
1678.512695	70253.617188
1677.488281	69647.953125
1676.464844	70231.164062
1675.440430	69689.164062
1674.415039	69967.164062
1673.390625	69383.929688
1672.365234	69488.710938
1671.340820	69444.695312
1670.315430	69276.343750
1669.290039	69629.726562
1668.263672	69805.054688
1667.238281	69773.187500
1666.211914	69736.460938
1665.185547	69392.796875
1664.159180	69989.390625
1663.132812	69085.710938
1662.105469	69757.625000
1661.079102	69516.429688
1660.051758	69319.132812
1659.024414	69576.953125
1657.997070	69299.414062
1656.968750	69605.789062
1655.941406	69561.828125
1654.913086	69530.039062
1653.884766	69058.187500
1652.856445	69413.000000
1651.828125	68885.437500
1650.798828	68588.906250
1649.769531	69001.914062
1648.740234	68802.625000
1647.710938	69016.289062
1646.681641	69142.453125
1645.652344	68889.828125
1644.622070	68901.875000
1643.591797	68423.664062
1642.561523	68460.054688
1641.531250	68399.382812
1640.500977	69064.007812
1639.469727	68607.921875
1638.438477	68076.835938
1637.408203	68273.250000
1636.375977	68428.382812
1635.344727	68661.007812
1634.313477	68193.273438
1633.281250	67912.250000
1632.249023	68125.453125
1631.216797	68287.726562
1630.184570	68256.226562
1629.151367	68014.117188
1628.119141	68033.500000
1627.085938	67975.437500
1626.052734	67646.390625
1625.019531	67745.656250
1623.985352	68185.937500
1622.952148	67753.023438
1621.917969	67670.867188
1620.883789	67767.632812
1619.849609	67547.718750
1618.815430	67794.296875
1617.780273	67796.750000
1616.745117	67898.242188
1615.709961	67741.250000
1614.674805	67538.429688
1613.639648	67734.078125
1612.604492	67396.132812
1611.568359	67572.421875
1610.532227	67463.875000
1609.496094	66578.453125
1608.459961	67138.343750
1607.423828	67155.351562
1606.386719	67432.789062
1605.349609	67413.570312
1604.312500	67466.664062
1603.275391	67307.640625
1602.238281	67139.039062
1601.200195	67408.992188
1600.163086	67300.640625
1599.125000	67452.453125
1598.086914	67067.203125
1597.047852	66896.367188
1596.009766	66631.703125
1594.970703	66903.851562
1593.931641	67346.750000
1592.892578	66605.765625
1591.853516	66711.781250
1590.814453	67005.359375
1589.774414	67185.804688
1588.734375	66926.210938
1587.694336	66907.085938
1586.654297	66779.820312
1585.614258	66635.773438
1584.573242	67226.937500
1583.532227	66821.031250
1582.492188	66391.242188
1581.450195	66314.593750
1580.409180	67198.281250
1579.368164	66948.679688
1578.326172	66641.562500
1577.284180	66440.132812
1576.242188	66334.734375
1575.200195	66893.804688
1574.157227	66104.859375
1573.115234	66795.640625
1572.072266	66685.453125
1571.029297	67349.515625
1569.985352	66724.007812
1568.942383	66460.531250
1567.898438	66899.070312
1566.855469	67057.210938
1565.811523	66223.843750
1564.767578	66638.242188
1563.722656	66375.000000
1562.678711	66760.500000
1561.633789	66360.914062
1560.588867	66554.859375
1559.543945	66696.101562
1558.499023	66430.679688
1557.453125	66516.882812
1556.407227	66433.296875
1555.361328	66944.984375
1554.315430	66380.929688
1553.269531	66835.085938
1552.223633	66562.734375
1551.176758	66603.421875
1550.129883	66775.453125
1549.083008	66522.351562
1548.036133	66691.945312
1546.989258	65973.453125
1545.941406	66424.710938
1544.893555	66183.773438
1543.845703	66324.664062
1542.797852	66274.664062
1541.750000	65981.406250
1540.701172	66525.242188
1539.652344	66179.593750
1538.603516	66451.445312
1537.554688	66551.609375
1536.505859	66380.078125
1535.456055	65820.265625
1534.407227	66125.328125
1533.357422	65763.429688
1532.307617	66225.546875
1531.256836	66311.335938
1530.207031	65863.890625
1529.156250	66463.773438
1528.105469	65968.867188
1527.054688	66049.875000
1526.003906	66204.585938
1524.953125	65935.914062
1523.901367	65833.789062
1522.849609	65700.781250
1521.797852	65724.703125
1520.746094	65712.960938
1519.694336	65936.460938
1518.641602	66159.875000
1517.588867	65668.257812
1516.536133	65490.285156
1515.483398	65264.890625
1514.430664	65414.660156
1513.376953	65519.273438
1512.323242	65555.031250
1511.269531	65538.570312
1510.215820	65154.410156
1509.162109	65123.792969
1508.107422	65790.382812
1507.053711	65055.468750
1505.999023	65167.109375
1504.944336	65041.691406
1503.888672	64582.187500
1502.833984	65094.257812
1501.778320	65035.242188
1500.722656	64710.976562
1499.666992	65128.019531
1498.611328	64735.191406
1497.555664	64789.894531
1496.499023	64759.375000
1495.442383	65299.148438
1494.385742	65197.566406
1493.329102	65164.613281
1492.271484	64772.183594
1491.214844	64625.812500
1490.157227	65174.570312
1489.099609	64553.050781
1488.041992	64333.523438
1486.983398	64742.617188
1485.925781	64464.066406
1484.867188	64204.511719
1483.808594	64537.828125
1482.750000	64450.718750
1481.691406	64214.902344
1480.631836	64378.082031
1479.572266	64196.636719
1478.512695	64265.371094
1477.453125	63937.742188
1476.393555	63909.785156
1475.333008	63745.050781
1474.273438	64287.742188
1473.212891	64177.218750
1472.152344	63765.027344
1471.090820	63654.632812
1470.030273	63768.113281
1468.968750	63872.125000
1467.907227	63877.171875
1466.845703	63439.488281
1465.784180	63941.410156
1464.721680	63572.132812
1463.660156	63763.160156
1462.597656	63591.714844
1461.535156	63707.375000
1460.472656	62922.019531
1459.409180	63701.011719
1458.345703	62854.792969
1457.283203	63381.941406
1456.219727	63311.812500
1455.155273	62940.871094
1454.091797	62891.992188
1453.027344	63670.136719
1451.963867	63064.417969
1450.899414	63039.023438
1449.833984	62574.519531
1448.769531	63161.984375
1447.704102	63005.125000
1446.639648	63174.539062
1445.574219	63372.050781
1444.507812	63170.656250
1443.442383	62802.785156
1442.375977	62906.437500
1441.310547	62799.019531
1440.244141	62867.464844
1439.177734	62579.597656
1438.110352	62847.257812
1437.043945	62800.835938
1435.976562	62859.851562
1434.909180	62101.378906
1433.841797	62734.253906
1432.773438	62528.656250
1431.706055	62627.464844
1430.637695	62869.015625
1429.569336	62015.261719
1428.500977	62771.578125
1427.432617	62435.140625
1426.363281	62519.832031
1425.294922	62590.457031
1424.225586	62193.433594
1423.156250	62142.527344
1422.085938	62058.917969
1421.016602	62512.804688
1419.946289	62078.691406
1418.875977	62352.535156
1417.805664	62061.070312
1416.735352	62327.808594
1415.664062	62157.851562
1414.593750	62163.027344
1413.522461	62501.949219
1412.451172	62049.695312
1411.379883	61702.585938
1410.307617	62020.406250
1409.235352	61869.328125
1408.164062	61708.980469
1407.090820	61891.398438
1406.018555	61299.863281
1404.946289	62330.605469
1403.873047	61541.140625
1402.799805	61273.812500
1401.726562	62241.105469
1400.653320	61275.078125
1399.580078	61585.390625
1398.505859	61637.179688
1397.431641	61686.617188
1396.357422	61524.257812
1395.283203	61389.878906
1394.208008	61450.957031
1393.133789	61044.500000
1392.058594	61754.437500
1390.983398	61057.421875
1389.908203	61513.707031
1388.832031	61495.671875
1387.756836	61154.621094
1386.680664	61255.148438
1385.604492	61478.753906
1384.528320	61154.144531
1383.451172	61006.136719
1382.375000	61171.613281
1381.297852	61149.000000
1380.220703	60850.203125
1379.143555	61410.101562
1378.065430	61076.558594
1376.988281	60808.082031
1375.910156	60727.562500
1374.832031	61110.835938
1373.753906	60501.683594
1372.674805	61197.785156
1371.596680	60917.929688
1370.517578	60781.835938
1369.438477	60919.164062
1368.359375	60250.355469
1367.279297	60614.687500
1366.200195	60881.636719
1365.120117	60805.851562
1364.040039	60901.375000
1362.959961	61036.207031
1361.878906	60324.121094
1360.798828	60632.507812
1359.717773	60438.859375
1358.636719	60562.101562
1357.555664	60366.218750
1356.473633	60290.613281
1355.392578	60610.273438
1354.310547	60282.757812
1353.228516	60422.078125
1352.146484	60090.089844
1351.063477	60224.769531
1349.981445	60424.062500
1348.898438	60223.847656
1347.815430	60596.191406
1346.732422	60135.207031
1345.649414	60126.675781
1344.565430	60448.070312
1343.481445	60234.179688
1342.397461	59925.800781
1341.313477	60235.519531
1340.229492	60185.464844
1339.144531	60329.054688
1338.059570	60133.800781
1336.974609	60351.082031
1335.889648	59784.968750
1334.804688	60377.687500
1333.718750	60205.585938
1332.632812	60146.371094
1331.546875	60559.125000
1330.460938	60679.402344
1329.375000	59968.839844
1328.288086	60268.648438
1327.201172	59733.253906
1326.114258	60101.996094
1325.027344	59421.937500
1323.940430	59769.902344
1322.852539	59984.406250
1321.764648	60051.726562
1320.676758	60047.785156
1319.588867	59894.492188
1318.500977	59741.253906
1317.412109	59934.886719
1316.324219	59625.535156
1315.235352	60037.230469
1314.145508	59447.910156
1313.056641	59864.070312
1311.966797	59770.652344
1310.876953	59537.312500
1309.787109	59652.722656
1308.697266	59593.785156
1307.607422	58940.964844
1306.516602	59180.218750
1305.425781	59123.683594
1304.334961	58780.687500
1303.244141	59173.359375
1302.153320	59235.980469
1301.061523	58806.101562
1299.969727	59024.492188
1298.877930	58739.058594
1297.786133	58923.035156
1296.694336	58676.628906
1295.601562	58700.351562
1294.508789	58847.621094
1293.416016	58217.023438
1292.323242	58716.562500
1291.230469	58795.136719
1290.136719	58594.730469
1289.042969	58549.847656
1287.949219	58575.832031
1286.855469	58048.785156
1285.760742	58620.910156
1284.666992	58226.535156
1283.572266	58330.203125
1282.477539	58027.359375
1281.381836	57936.957031
1280.287109	57791.796875
1279.191406	57874.917969
1278.095703	57734.378906
1277.000000	57803.789062
1275.904297	57987.222656
1274.808594	57395.160156
1273.711914	57621.921875
1272.615234	57618.335938
1271.518555	57892.839844
1270.421875	57004.941406
1269.324219	57530.097656
1268.226562	57326.039062
1267.129883	57354.386719
1266.031250	57093.496094
1264.933594	57399.656250
1263.835938	56890.703125
1262.737305	57178.578125
1261.638672	57190.980469
1260.540039	57182.902344
1259.441406	57309.042969
1258.341797	56814.199219
1257.242188	56765.253906
1256.142578	56616.281250
1255.042969	56953.832031
1253.943359	56527.589844
1252.842773	56662.785156
1251.743164	56588.906250
1250.642578	56942.109375
1249.541016	56475.285156
1248.440430	56655.796875
1247.338867	56784.023438
1246.238281	56444.593750
1245.136719	56416.210938
1244.034180	56660.128906
1242.932617	56447.945312
1241.831055	56517.105469
1240.728516	56590.773438
1239.625977	56015.914062
1238.522461	56454.640625
1237.419922	56215.472656
1236.316406	56302.730469
1235.213867	56269.863281
1234.110352	55845.089844
1233.005859	56036.550781
1231.902344	55996.949219
1230.797852	56367.179688
1229.693359	56624.082031
1228.588867	55943.855469
1227.484375	56024.226562
1226.379883	55762.921875
1225.274414	55721.136719
1224.168945	55584.371094
1223.063477	56060.472656
1221.958008	55925.953125
1220.851562	55671.671875
1219.746094	55394.878906
1218.639648	56033.355469
1217.533203	55959.925781
1216.425781	55802.945312
1215.319336	55926.066406
1214.211914	55432.695312
1213.104492	55621.304688
1211.997070	55665.382812
1210.889648	55781.660156
1209.781250	55888.867188
1208.672852	55815.550781
1207.564453	55582.113281
1206.456055	55599.085938
1205.347656	55440.175781
1204.238281	55527.042969
1203.128906	55260.011719
1202.019531	55409.976562
1200.910156	55478.769531
1199.800781	55405.617188
1198.690430	55393.300781
1197.580078	55991.253906
1196.469727	55555.546875
1195.359375	55185.281250
1194.249023	55620.890625
1193.137695	55615.285156
1192.026367	55211.453125
1190.915039	55410.617188
1189.803711	55076.687500
1188.691406	55412.964844
1187.580078	55133.109375
1186.467773	54945.511719
1185.355469	55250.160156
1184.242188	55383.921875
1183.129883	55342.402344
1182.016602	54912.304688
1180.903320	55320.035156
1179.790039	55397.546875
1178.676758	55335.839844
1177.562500	55323.531250
1176.449219	55331.421875
1175.334961	55182.250000
1174.219727	54914.230469
1173.105469	54879.570312
1171.990234	54804.554688
1170.875977	55032.246094
1169.760742	54468.539062
1168.644531	54821.714844
1167.529297	55098.574219
1166.413086	54801.769531
1165.297852	54738.035156
1164.181641	54815.421875
1163.064453	54921.886719
1161.948242	54743.976562
1160.831055	54792.210938
1159.713867	54565.152344
1158.596680	54740.941406
1157.479492	54279.058594
1156.362305	54143.917969
1155.244141	54959.289062
1154.125977	54227.058594
1153.007812	54206.007812
1151.888672	54209.546875
1150.770508	53969.496094
1149.651367	53979.777344
1148.532227	53900.691406
1147.413086	54071.792969
1146.293945	54120.003906
1145.173828	53650.203125
1144.053711	53928.402344
1142.933594	54081.507812
1141.813477	54227.859375
1140.693359	53740.523438
1139.572266	53817.726562
1138.451172	53763.316406
1137.330078	54003.265625
1136.208984	53810.605469
1135.086914	52889.109375
1133.965820	53637.214844
1132.843750	53832.437500
1131.721680	53535.230469
1130.599609	53255.953125
1129.476562	53515.714844
1128.353516	53060.632812
1127.230469	53175.625000
1126.107422	52916.636719
1124.984375	52858.027344
1123.860352	53064.214844
1122.737305	53156.871094
1121.613281	53280.625000
1120.488281	53255.339844
1119.364258	53161.140625
1118.239258	53160.332031
1117.115234	53006.167969
1115.990234	53018.718750
1114.864258	52871.296875
1113.739258	52666.171875
1112.613281	52860.886719
1111.487305	53057.753906
1110.361328	52428.652344
1109.235352	52763.140625
1108.108398	52735.757812
1106.982422	52526.429688
1105.855469	52734.253906
1104.728516	52400.785156
1103.600586	52553.109375
1102.473633	52308.480469
1101.345703	52527.273438
1100.217773	52601.906250
1099.089844	52740.781250
1097.960938	52755.523438
1096.833008	52763.609375
1095.704102	52583.429688
1094.575195	52529.535156
1093.446289	52451.304688
1092.316406	52474.929688
1091.187500	52078.023438
1090.057617	52446.906250
1088.927734	52125.367188
1087.796875	52255.203125
1086.666992	52714.523438
1085.536133	52264.855469
1084.405273	52383.531250
1083.274414	52071.128906
1082.143555	52483.726562
1081.011719	52012.324219
1079.879883	52201.648438
1078.748047	52238.488281
1077.616211	52531.492188
1076.484375	52036.128906
1075.351562	51920.648438
1074.218750	51597.734375
1073.085938	52422.468750
1071.953125	52236.371094
1070.820312	51721.644531
1069.686523	51965.828125
1068.552734	51916.632812
1067.418945	51389.011719
1066.284180	52442.121094
1065.150391	52287.066406
1064.015625	52021.886719
1062.880859	51642.238281
1061.746094	51707.683594
1060.611328	51887.625000
1059.475586	52003.644531
1058.339844	51875.242188
1057.204102	51742.484375
1056.068359	51528.343750
1054.932617	51562.921875
1053.795898	52002.273438
1052.659180	51220.714844
1051.522461	51950.250000
1050.385742	51234.945312
1049.248047	51249.746094
1048.110352	51963.480469
1046.972656	51666.089844
1045.834961	51516.011719
1044.697266	51702.085938
1043.558594	51295.085938
1042.419922	51760.007812
1041.281250	51625.382812
1040.142578	51247.148438
1039.003906	51571.359375
1037.864258	51318.343750
1036.724609	51232.152344
1035.584961	51435.539062
1034.445312	51191.449219
1033.304688	51019.812500
1032.165039	51049.921875
1031.024414	50939.742188
1029.883789	51454.171875
1028.742188	51223.441406
1027.601562	50815.347656
1026.459961	50996.585938
1025.318359	51241.265625
1024.176758	51131.156250
1023.034180	50493.515625
1021.892578	50427.351562
1020.750000	50816.371094
1019.607422	50894.570312
1018.463867	50771.488281
1017.321289	51184.285156
1016.177734	50575.746094
1015.034180	50516.183594
1013.890625	50603.097656
1012.747070	50709.644531
1011.602539	50720.007812
1010.458008	50881.109375
1009.313477	50600.925781
1008.168945	50240.035156
1007.024414	50425.148438
1005.878906	50653.847656
1004.733398	50517.957031
1003.587891	50619.984375
1002.442383	50569.238281
1001.295898	50555.593750
1000.149414	50402.363281
999.002930	50497.781250
997.856445	49982.691406
996.709961	50483.601562
995.562500	50354.464844
994.415039	50183.964844
993.267578	50242.289062
992.120117	50444.355469
990.972656	50406.781250
989.824219	50610.914062
988.675781	50401.328125
987.527344	50326.769531
986.378906	50306.644531
985.229492	50371.382812
984.080078	50664.519531
982.930664	50061.417969
981.781250	49952.183594
980.631836	50138.691406
979.481445	49718.617188
978.331055	50081.144531
977.180664	49754.671875
976.030273	49880.234375
974.879883	50359.824219
973.728516	50105.148438
972.577148	50104.625000
971.425781	49897.843750
970.273438	50164.347656
969.122070	49907.710938
967.969727	49711.925781
966.817383	49952.277344
965.665039	49739.195312
964.511719	49879.687500
963.359375	50228.281250
962.206055	50136.664062
961.052734	49951.875000
959.898438	49686.972656
958.745117	49684.332031
957.590820	49924.312500
956.436523	50073.238281
955.282227	49892.953125
954.127930	49846.964844
952.972656	49694.921875
951.817383	49506.140625
950.662109	49548.964844
949.506836	49905.476562
948.350586	49489.628906
947.195312	49614.605469
946.039062	49462.761719
944.882812	49410.417969
943.725586	49459.679688
942.569336	49748.808594
941.412109	49253.488281
940.254883	49438.847656
939.097656	49606.855469
937.939453	49427.117188
936.782227	49182.671875
935.624023	49329.039062
934.465820	48953.039062
933.306641	49243.972656
932.148438	49219.800781
930.989258	49212.890625
929.830078	49095.984375
928.670898	49227.101562
927.510742	49159.820312
926.351562	49109.804688
925.191406	49271.011719
924.031250	49320.109375
922.871094	48634.554688
921.709961	49308.394531
920.548828	48588.628906
919.387695	48818.675781
918.226562	48841.964844
917.065430	48352.984375
915.903320	48692.687500
914.741211	48767.621094
913.579102	48747.875000
912.416992	48876.535156
911.254883	48379.382812
910.091797	48540.308594
908.928711	48647.433594
907.765625	48365.511719
906.601562	48530.644531
905.438477	48343.375000
904.274414	48540.664062
903.110352	48447.953125
901.946289	48157.726562
900.781250	48284.089844
899.617188	47948.925781
898.452148	48229.789062
897.287109	48079.277344
896.121094	48409.351562
894.956055	48076.546875
893.790039	47917.558594
892.624023	47758.632812
891.458008	48135.671875
890.291016	47676.699219
889.125000	48154.328125
887.958008	47911.906250
886.791016	48183.671875
885.623047	47975.597656
884.456055	47609.144531
883.288086	47602.492188
882.120117	48205.878906
880.952148	47655.531250
879.783203	48138.859375
878.615234	47612.253906
877.446289	47530.734375
876.277344	47699.449219
875.107422	47513.171875
873.938477	47884.906250
872.768555	47625.992188
871.598633	47897.128906
870.428711	48078.429688
869.257812	47550.460938
868.087891	48015.804688
866.916992	48075.261719
865.746094	47893.441406
864.575195	47792.800781
863.403320	47907.750000
862.231445	47813.539062
861.059570	47853.765625
859.887695	47757.464844
858.715820	47505.519531
857.542969	47196.093750
856.370117	47671.281250
855.197266	47585.734375
854.024414	47969.039062
852.850586	47401.941406
851.676758	47951.292969
850.503906	47322.640625
849.329102	47486.367188
848.155273	47307.257812
846.980469	47477.312500
845.805664	47885.664062
844.630859	47734.234375
843.456055	47842.410156
842.280273	47599.578125
841.105469	47607.781250
839.929688	47822.226562
838.753906	47630.546875
837.577148	48002.191406
836.400391	47617.164062
835.224609	47786.820312
834.046875	47189.535156
832.870117	47495.140625
831.693359	47352.562500
830.515625	47358.652344
829.337891	47710.746094
828.160156	47415.394531
826.981445	47512.707031
825.803711	47650.292969
824.625000	47885.398438
823.446289	47431.164062
822.266602	47441.460938
821.087891	47646.789062
819.908203	47281.867188
818.728516	47777.476562
817.548828	47266.460938
816.368164	47350.910156
815.188477	47132.449219
814.007812	47447.710938
812.827148	47299.179688
811.645508	47349.679688
810.464844	47525.035156
809.283203	47023.179688
808.101562	47274.687500
806.919922	46707.488281
805.737305	47329.062500
804.554688	47495.789062
803.373047	47368.589844
802.189453	47867.093750
801.006836	47585.597656
799.823242	47376.039062
798.640625	46984.882812
797.457031	47299.324219
796.272461	46912.542969
795.088867	46954.511719
793.904297	47015.460938
792.719727	47184.023438
791.535156	46934.707031
790.350586	47274.109375
789.165039	47060.726562
787.979492	47113.152344
786.793945	46522.425781
785.608398	46912.246094
784.421875	46661.132812
783.236328	46991.769531
782.049805	46959.867188
780.862305	46991.171875
779.675781	46481.152344
778.488281	46529.378906
777.300781	46499.683594
776.113281	46966.796875
774.925781	46606.589844
773.737305	46600.035156
772.549805	46559.820312
771.361328	46584.824219
770.171875	46866.402344
768.983398	46538.078125
767.793945	46434.824219
766.604492	46489.253906
765.415039	46573.082031
764.225586	46560.226562
763.035156	46641.906250
761.845703	46486.207031
760.655273	46393.566406
759.463867	46649.492188
758.273438	46470.781250
757.082031	46667.828125
755.890625	46581.511719
754.699219	46396.609375
753.507812	45953.765625
752.315430	46182.210938
751.123047	46708.332031
749.930664	46060.207031
748.738281	46087.273438
747.544922	46193.968750
746.351562	46187.468750
745.158203	45948.433594
743.964844	45730.425781
742.771484	46073.738281
741.577148	46209.636719
740.382812	46138.234375
739.188477	46211.277344
737.994141	45865.765625
736.798828	46122.941406
735.603516	46250.324219
734.408203	45486.707031
733.212891	46103.460938
732.016602	45948.531250
730.821289	45697.503906
729.625000	45918.882812
728.428711	45690.937500
727.231445	45724.210938
726.035156	46271.292969
724.837891	46237.617188
723.640625	45853.175781
722.442383	45606.652344
721.245117	45740.085938
720.046875	46092.574219
718.848633	45896.214844
717.650391	45764.589844
716.451172	45887.457031
715.252930	45916.437500
714.053711	45895.375000
712.854492	46016.054688
711.654297	45651.105469
710.455078	46190.601562
709.254883	45786.171875
708.054688	45783.882812
706.853516	45960.691406
705.653320	45810.539062
704.452148	45604.234375
703.250977	46093.167969
702.049805	46136.597656
700.847656	45817.992188
699.646484	45659.675781
698.444336	46027.601562
697.242188	45873.457031
696.039062	45835.796875
694.836914	45492.589844
693.633789	45525.667969
692.430664	45633.531250
691.227539	46059.207031
690.023438	45726.589844
688.819336	45682.753906
687.615234	45537.195312
686.411133	45561.910156
685.207031	45140.378906
684.001953	45903.902344
682.796875	45996.996094
681.591797	45917.882812
680.386719	45691.542969
679.180664	45946.359375
677.974609	45755.339844
676.768555	45643.156250
675.562500	45493.707031
674.356445	45669.621094
673.149414	45588.585938
671.942383	45304.593750
670.735352	45753.796875
669.527344	45776.308594
668.320312	45631.128906
667.112305	45697.113281
665.904297	45827.222656
664.695312	45930.382812
663.487305	45375.703125
662.278320	45389.972656
661.069336	45317.390625
659.860352	45643.839844
658.650391	45345.929688
657.440430	45341.585938
656.230469	45548.000000
655.020508	45376.281250
653.810547	45369.867188
652.599609	45330.406250
651.388672	45340.515625
650.177734	45385.707031
648.966797	45451.523438
647.754883	45178.890625
646.542969	45306.609375
645.331055	45040.292969
644.119141	44945.250000
642.906250	44819.308594
641.694336	44973.789062
640.481445	45220.968750
639.267578	44855.984375
638.054688	44804.324219
636.840820	44859.800781
635.626953	44659.859375
634.413086	44781.234375
633.199219	44927.273438
631.984375	44937.390625
630.769531	44996.898438
629.554688	44521.367188
628.339844	44868.957031
627.124023	45018.945312
625.909180	44920.023438
624.693359	44973.300781
623.476562	44903.207031
622.260742	44352.164062
621.043945	44785.691406
619.827148	44740.320312
618.610352	45233.187500
617.393555	44789.289062
616.175781	45010.890625
614.958008	44986.035156
613.740234	45271.148438
612.522461	44891.191406
611.303711	44755.558594
610.084961	44892.835938
608.866211	44615.714844
607.647461	44960.093750
606.427734	45009.082031
605.208984	44943.242188
603.989258	44590.476562
602.768555	44565.722656
601.548828	44391.410156
600.328125	44540.824219
599.107422	44436.210938
597.886719	44065.425781
596.666016	44515.773438
595.444336	44431.687500
594.222656	44091.808594
593.000977	44316.804688
591.779297	44506.941406
590.556641	44484.273438
589.334961	43893.085938
588.112305	44167.019531
586.888672	44350.894531
585.666016	44246.511719
584.442383	44319.949219
583.218750	44526.164062
581.995117	44370.730469
580.770508	43982.523438
579.546875	43964.058594
578.322266	44231.421875
577.097656	43990.421875
575.872070	44198.492188
574.647461	44322.824219
573.421875	44024.812500
572.196289	44061.421875
570.969727	44175.507812
569.744141	44191.679688
568.517578	43912.253906
567.291016	44024.257812
566.064453	44079.160156
564.836914	43822.320312
563.609375	43820.199219
562.381836	44054.328125
561.154297	44041.980469
559.926758	44001.132812
558.698242	43697.718750
557.469727	43787.195312
556.241211	43616.187500
555.012695	44086.062500
553.783203	43864.210938
552.553711	43644.476562
551.324219	43597.640625
550.094727	43717.511719
548.864258	43853.597656
547.633789	43751.878906
546.403320	43700.988281
545.172852	43386.050781
543.941406	43522.085938
542.710938	43457.046875
541.479492	43105.781250
540.247070	43489.417969
539.015625	43578.648438
537.783203	43513.640625
536.550781	43302.593750
535.318359	43150.445312
534.085938	43077.433594
532.852539	42834.144531
531.619141	43107.851562
530.385742	43300.382812
529.152344	42824.156250
527.917969	42882.953125
526.683594	42716.886719
525.449219	42797.957031
524.214844	42844.570312
522.979492	42814.234375
521.744141	42666.519531
520.508789	42929.652344
519.273438	42850.757812
518.037109	42583.761719
516.801758	42759.789062
515.565430	42626.367188
514.328125	42452.554688
513.091797	42877.132812
511.854492	42612.390625
510.617188	42598.300781
509.379883	42911.492188
508.142578	42535.796875
506.904297	42271.312500
505.666016	42354.207031
504.427734	42990.191406
503.189453	42628.886719
501.950195	43004.261719
500.710938	42875.101562
499.471680	42461.570312
498.232422	42667.347656
496.992188	42633.089844
495.751953	42409.335938
494.511719	42292.496094
493.271484	42502.171875
492.030273	42278.566406
490.790039	42461.972656
489.548828	42395.554688
488.306641	42375.480469
487.065430	42401.714844
485.823242	41793.843750
484.581055	42093.890625
483.338867	42248.941406
482.095703	42377.777344
480.853516	42309.437500
479.610352	42412.066406
478.367188	42225.109375
477.123047	42267.402344
475.879883	42197.117188
474.635742	41919.871094
473.391602	42345.945312
472.146484	42225.460938
470.902344	41952.375000
469.657227	41988.632812
468.412109	42133.289062
467.166016	42024.968750
465.920898	42364.234375
464.674805	41495.425781
463.428711	42302.093750
462.182617	41776.613281
460.935547	42007.367188
459.688477	42260.085938
458.441406	41698.820312
457.194336	41791.156250
455.946289	41911.511719
454.699219	41829.464844
453.451172	41865.632812
452.202148	41783.617188
450.954102	41649.574219
449.705078	41899.960938
448.456055	41729.910156
447.207031	41141.664062
445.958008	41606.093750
444.708008	41344.164062
443.458008	41570.363281
442.208008	41448.519531
440.957031	41442.683594
439.707031	41216.960938
438.456055	41257.132812
437.205078	41201.375000
435.953125	40855.945312
434.702148	40962.074219
433.450195	41189.984375
432.198242	41260.066406
430.945312	41346.089844
429.693359	41350.242188
428.440430	41009.160156
427.187500	40945.535156
425.934570	40696.414062
424.680664	41053.699219
423.426758	41071.851562
422.172852	40751.070312
420.918945	41177.902344
419.664062	40797.425781
418.410156	41146.375000
417.155273	41371.671875
415.899414	41688.503906
414.644531	41931.531250
413.388672	41716.523438
412.132812	42053.011719
410.876953	41635.046875
409.620117	41844.062500
408.364258	41279.066406
407.107422	41066.363281
405.849609	40718.503906
404.592773	40690.906250
403.334961	40563.914062
402.077148	40508.527344
400.819336	40620.089844
399.561523	40556.761719
398.302734	40529.210938
397.043945	40452.015625
395.785156	40233.855469
394.525391	40013.792969
393.266602	40216.621094
392.006836	39952.980469
390.747070	40268.843750
389.486328	40247.320312
388.226562	40326.968750
386.965820	39990.121094
385.705078	40099.519531
384.443359	39641.914062
383.182617	40020.890625
381.920898	40096.527344
380.659180	39815.507812
379.396484	39853.519531
378.134766	40000.437500
376.872070	39959.187500
375.609375	39666.523438
374.346680	39708.480469
373.083008	39580.226562
371.819336	39727.050781
370.555664	39816.449219
369.291992	39808.890625
368.027344	39461.203125
366.762695	39327.179688
365.498047	39430.414062
364.233398	39284.582031
362.968750	39290.957031
361.703125	39058.273438
360.437500	39177.273438
359.170898	39077.015625
357.905273	39217.683594
356.638672	39075.996094
355.372070	39262.003906
354.105469	39140.089844
352.837891	39099.117188
351.571289	38720.832031
350.303711	38887.039062
349.035156	38702.179688
347.767578	38850.578125
346.499023	38476.562500
345.230469	38729.394531
343.961914	38678.683594
342.692383	38754.074219
341.423828	38620.652344
340.154297	38705.867188
338.883789	38568.566406
337.614258	38602.574219
336.343750	38410.230469
335.073242	38355.699219
333.802734	38159.539062
332.532227	37967.382812
331.260742	38162.726562
329.989258	38271.480469
328.717773	38272.066406
327.445312	38201.890625
326.173828	38442.234375
324.901367	38232.546875
323.627930	38272.421875
322.355469	38163.011719
321.082031	37943.675781
319.808594	38107.261719
318.535156	38268.820312
317.261719	38255.652344
315.987305	38095.324219
314.712891	38052.761719
313.438477	38012.171875
312.164062	38220.652344
310.888672	38166.320312
309.613281	38404.093750
308.337891	38477.136719
307.061523	38381.632812
305.786133	38654.484375
304.509766	38653.000000
303.233398	38966.824219
301.956055	39392.132812
300.678711	39795.742188
299.402344	39995.636719
298.124023	39289.390625
296.846680	39831.703125
295.568359	40189.921875
294.290039	40624.277344
293.011719	40237.183594
291.733398	39877.601562
290.454102	39060.757812
289.174805	38582.320312
287.895508	37914.531250
286.616211	37596.683594
285.335938	37292.632812
284.055664	37472.996094
282.775391	37563.472656
281.494141	37111.234375
280.213867	36875.808594
278.932617	36519.484375
277.651367	36391.562500
276.369141	36669.410156
275.087891	36346.476562
273.805664	36421.441406
272.523438	36274.128906
271.240234	36310.089844
269.958008	36344.089844
268.674805	36300.136719
267.390625	35983.476562
266.107422	35949.343750
264.823242	36000.902344
263.539062	35746.777344
262.254883	36115.632812
260.970703	36052.300781
259.685547	35973.425781
258.400391	36021.031250
257.115234	35496.777344
255.830078	35871.156250
254.543945	35444.339844
253.257812	35404.527344
251.971680	35770.925781
250.684570	35797.128906
249.398438	35757.265625
248.111328	35744.609375
246.824219	35737.781250
245.536133	36020.265625
244.248047	35794.015625
242.960938	35365.992188
241.671875	35302.960938
240.383789	35272.933594
239.094727	35510.613281
237.805664	35102.359375
236.516602	35161.578125
235.227539	35449.542969
233.937500	35541.625000
232.647461	35511.574219
231.357422	35878.746094
230.066406	36340.699219
228.775391	37311.871094
227.485352	37434.484375
226.193359	37338.265625
224.902344	36618.765625
223.610352	36019.531250
222.318359	35405.046875
221.026367	34904.941406
219.733398	34627.464844
218.441406	34725.273438
217.148438	34215.910156
215.854492	34452.945312
214.561523	34398.031250
213.267578	34082.261719
211.973633	34230.304688
210.679688	34171.597656
209.384766	33912.054688
208.090820	33758.812500
206.795898	33609.488281
205.500000	33992.957031
204.205078	33751.011719
202.909180	33497.578125
201.613281	33421.714844
200.317383	33397.957031
199.020508	33457.128906
197.723633	33263.703125
196.426758	33292.031250
195.129883	33031.257812
193.832031	33076.957031
192.534180	33365.378906
191.236328	32921.750000
189.938477	32736.347656
188.639648	32832.121094
187.341797	32450.449219
186.042969	32811.843750
184.743164	32359.117188
183.444336	32470.275391
182.144531	32864.156250
180.844727	32450.138672
179.543945	32657.351562
178.244141	32356.955078
176.943359	32339.220703
175.642578	32548.253906
174.340820	32380.619141
173.040039	32195.757812
171.738281	32310.583984
170.435547	32242.939453
169.133789	32048.607422
167.831055	32029.023438
166.528320	31999.851562
165.225586	31987.957031
163.922852	31907.001953
162.619141	31977.601562
161.315430	31996.396484
160.011719	31842.625000
158.708008	31533.638672
157.403320	31753.742188
156.098633	31404.648438
154.793945	31833.515625
153.488281	31333.214844
152.182617	31269.748047
150.876953	31460.962891
149.571289	31012.703125
148.265625	30842.146484
146.958984	30907.029297
145.652344	30954.666016
144.345703	30723.000000
143.038086	30900.701172
141.730469	30814.457031
140.422852	30894.568359
139.115234	30907.748047
137.806641	30605.597656
136.498047	30462.148438
135.189453	30511.695312
133.880859	29974.863281
132.571289	29739.953125
131.262695	29600.593750
129.952148	29211.224609
128.642578	28839.179688
127.332031	28387.136719
126.021484	28005.851562
124.710938	27376.751953
123.400391	27045.388672
122.088867	26702.710938
120.777344	25961.750000
119.465820	25129.587891
