#Wave		#Intensity
1999.057617	51266.042969
1998.089844	51015.460938
1997.122070	50939.414062
1996.154297	50951.195312
1995.186523	51185.019531
1994.217773	51529.765625
1993.249023	51182.664062
1992.280273	51764.703125
1991.311523	51737.621094
1990.341797	51101.726562
1989.373047	51766.007812
1988.403320	51065.859375
1987.433594	51330.261719
1986.463867	51398.648438
1985.494141	51626.812500
1984.524414	51156.523438
1983.553711	51474.824219
1982.583008	51455.542969
1981.613281	51204.457031
1980.641602	51774.949219
1979.670898	51853.460938
1978.700195	51942.242188
1977.728516	51683.511719
1976.756836	51337.375000
1975.785156	51763.253906
1974.813477	51406.929688
1973.841797	51637.164062
1972.869141	51502.144531
1971.897461	51760.562500
1970.924805	51152.546875
1969.952148	51323.539062
1968.979492	51073.015625
1968.005859	51832.351562
1967.033203	50867.656250
1966.059570	51536.859375
1965.085938	51502.183594
1964.112305	51878.332031
1963.138672	51995.066406
1962.165039	51567.617188
1961.190430	51643.296875
1960.215820	51544.476562
1959.242188	51430.296875
1958.266602	51526.476562
1957.291992	51827.781250
1956.317383	51564.890625
1955.341797	51945.546875
1954.366211	51387.968750
1953.390625	51427.683594
1952.415039	51680.046875
1951.439453	51694.074219
1950.463867	51505.750000
1949.487305	51402.000000
1948.510742	51549.207031
1947.534180	51629.800781
1946.557617	51784.589844
1945.580078	51488.921875
1944.603516	51536.214844
1943.625977	51435.113281
1942.648438	51940.230469
1941.670898	51578.246094
1940.693359	51863.269531
1939.715820	51634.355469
1938.737305	51277.718750
1937.758789	51652.082031
1936.780273	51384.988281
1935.801758	52247.132812
1934.823242	51489.625000
1933.844727	51253.339844
1932.865234	51469.066406
1931.885742	51498.359375
1930.906250	51800.746094
1929.926758	51533.941406
1928.947266	51328.464844
1927.966797	51827.148438
1926.986328	51320.714844
1926.006836	51319.386719
1925.026367	51351.207031
1924.044922	51232.605469
1923.064453	51389.316406
1922.083008	51640.261719
1921.102539	51511.472656
1920.121094	51701.164062
1919.139648	51457.789062
1918.157227	51899.531250
1917.175781	51164.800781
1916.193359	51191.484375
1915.211914	51510.863281
1914.229492	51295.718750
1913.246094	51536.089844
1912.263672	50929.246094
1911.281250	51736.789062
1910.297852	51603.125000
1909.314453	51357.628906
1908.331055	51053.750000
1907.347656	51619.234375
1906.363281	51310.328125
1905.379883	51207.335938
1904.395508	50837.636719
1903.411133	51336.718750
1902.426758	51185.519531
1901.442383	51354.285156
1900.458008	50954.351562
1899.472656	51244.925781
1898.487305	51322.230469
1897.501953	50886.984375
1896.516602	51230.687500
1895.531250	51376.429688
1894.544922	51405.464844
1893.559570	51132.773438
1892.573242	51445.761719
1891.586914	51132.597656
1890.599609	51493.621094
1889.613281	50929.718750
1888.625977	51209.585938
1887.639648	50932.132812
1886.652344	51034.628906
1885.665039	51544.726562
1884.676758	51054.714844
1883.689453	51569.687500
1882.701172	51150.691406
1881.713867	50805.214844
1880.725586	51115.050781
1879.736328	51520.886719
1878.748047	50834.132812
1877.759766	50880.843750
1876.770508	51392.671875
1875.781250	51558.058594
1874.791992	51303.894531
1873.802734	51155.933594
1872.812500	50960.027344
1871.823242	51400.664062
1870.833008	51305.789062
1869.842773	50880.191406
1868.852539	50838.449219
1867.862305	51306.554688
1866.871094	51461.582031
1865.880859	51250.707031
1864.889648	51589.835938
1863.898438	51104.093750
1862.907227	50820.257812
1861.915039	51383.671875
1860.923828	50820.070312
1859.931641	50758.222656
1858.939453	50658.597656
1857.947266	51138.488281
1856.955078	51071.574219
1855.961914	51115.500000
1854.969727	50874.855469
1853.976562	51188.195312
1852.983398	51320.175781
1851.990234	50815.343750
1850.997070	51322.289062
1850.002930	51114.515625
1849.008789	51002.402344
1848.014648	51338.011719
1847.020508	51208.292969
1846.026367	51214.382812
1845.032227	51303.425781
1844.037109	51126.023438
1843.042969	51478.898438
1842.047852	51500.003906
1841.051758	51289.996094
1840.056641	51062.480469
1839.061523	51508.019531
1838.065430	51375.949219
1837.069336	51083.265625
1836.073242	51071.777344
1835.077148	51251.003906
1834.081055	51131.605469
1833.083984	51564.109375
1832.086914	50862.832031
1831.090820	51292.718750
1830.092773	51063.074219
1829.095703	51292.238281
1828.098633	51576.453125
1827.100586	51537.316406
1826.102539	51335.339844
1825.104492	50860.394531
1824.106445	50999.218750
1823.108398	50887.585938
1822.109375	51159.042969
1821.111328	51210.121094
1820.112305	51298.722656
1819.113281	51409.812500
1818.113281	51210.628906
1817.114258	51344.203125
1816.114258	51357.679688
1815.115234	51418.660156
1814.115234	51129.605469
1813.115234	51403.070312
1812.114258	50776.718750
1811.114258	51467.445312
1810.113281	51211.054688
1809.112305	51194.550781
1808.111328	51183.042969
1807.110352	51263.929688
1806.109375	50995.261719
1805.107422	51238.398438
1804.105469	51261.824219
1803.103516	51177.941406
1802.101562	51121.531250
1801.099609	51334.535156
1800.096680	51153.414062
1799.094727	51239.160156
1798.091797	51102.996094
1797.088867	51308.363281
1796.085938	50927.992188
1795.082031	51375.015625
1794.079102	51251.367188
1793.075195	50998.234375
1792.071289	51238.296875
1791.067383	51226.785156
1790.063477	51148.054688
1789.058594	51452.671875
1788.053711	50898.589844
1787.049805	50844.832031
1786.044922	50783.632812
1785.039062	51035.859375
1784.034180	51315.351562
1783.028320	51025.335938
1782.023438	51135.675781
1781.017578	50743.878906
1780.011719	50717.542969
1779.004883	51203.066406
1777.999023	50987.843750
1776.992188	50775.179688
1775.985352	51153.648438
1774.978516	51032.894531
1773.971680	51165.406250
1772.964844	50808.886719
1771.957031	50690.738281
1770.950195	50617.289062
1769.942383	50722.480469
1768.934570	50525.027344
1767.925781	50694.675781
1766.917969	50417.949219
1765.909180	50637.132812
1764.900391	50779.394531
1763.891602	50683.703125
1762.882812	50672.285156
1761.874023	50460.210938
1760.864258	50287.835938
1759.854492	50402.785156
1758.844727	50468.175781
1757.834961	50706.824219
1756.825195	50420.664062
1755.815430	49921.781250
1754.804688	50318.750000
1753.793945	50309.871094
1752.783203	50335.621094
1751.772461	50460.273438
1750.760742	50275.820312
1749.750000	50573.484375
1748.738281	50500.292969
1747.726562	50264.031250
1746.714844	50309.515625
1745.703125	50152.414062
1744.690430	50504.164062
1743.678711	50445.855469
1742.666016	51152.964844
1741.653320	50413.234375
1740.640625	50243.902344
1739.626953	50434.914062
1738.614258	50273.035156
1737.600586	50306.093750
1736.586914	49480.832031
1735.573242	50014.601562
1734.558594	50484.078125
1733.544922	50053.632812
1732.530273	50062.042969
1731.515625	50270.046875
1730.500977	50332.617188
1729.486328	50311.406250
1728.471680	50164.593750
1727.456055	50012.906250
1726.440430	50220.726562
1725.424805	49862.304688
1724.409180	49887.949219
1723.393555	49780.703125
1722.376953	49848.171875
1721.360352	50331.335938
1720.344727	49963.363281
1719.328125	50143.871094
1718.310547	49945.699219
1717.293945	49791.839844
1716.276367	49898.546875
1715.258789	50403.289062
1714.241211	50244.511719
1713.223633	50014.550781
1712.206055	49826.421875
1711.187500	49910.921875
1710.169922	50167.242188
1709.151367	50251.648438
1708.132812	50250.121094
1707.113281	49846.171875
1706.094727	50303.492188
1705.075195	49899.671875
1704.055664	49510.710938
1703.036133	49742.250000
1702.016602	50373.320312
1700.997070	49967.316406
1699.976562	49968.277344
1698.956055	50035.394531
1697.935547	50281.328125
1696.915039	50292.023438
1695.894531	50170.468750
1694.873047	49554.339844
1693.852539	50189.433594
1692.831055	49872.136719
1691.809570	50166.769531
1690.788086	49612.242188
1689.765625	49691.527344
1688.743164	50037.398438
1687.721680	50089.675781
1686.699219	49738.492188
1685.676758	49746.796875
1684.653320	49975.078125
1683.630859	49289.289062
1682.607422	50147.960938
1681.583984	49445.281250
1680.560547	50254.765625
1679.537109	49769.656250
1678.512695	49780.375000
1677.488281	49610.433594
1676.464844	49862.808594
1675.440430	49761.242188
1674.415039	49842.699219
1673.390625	49675.300781
1672.365234	50183.578125
1671.340820	50162.492188
1670.315430	49351.437500
1669.290039	49540.148438
1668.263672	49333.945312
1667.238281	49773.589844
1666.211914	49633.195312
1665.185547	49782.742188
1664.159180	49664.312500
1663.132812	49095.417969
1662.105469	49739.222656
1661.079102	49501.582031
1660.051758	49312.695312
1659.024414	49306.386719
1657.997070	49321.972656
1656.968750	49490.800781
1655.941406	49265.562500
1654.913086	49339.503906
1653.884766	49269.968750
1652.856445	49151.843750
1651.828125	49145.554688
1650.798828	49241.324219
1649.769531	49371.074219
1648.740234	49070.816406
1647.710938	49040.253906
1646.681641	48888.281250
1645.652344	49136.957031
1644.622070	48603.917969
1643.591797	48665.675781
1642.561523	49241.835938
1641.531250	49174.867188
1640.500977	49185.546875
1639.469727	48934.289062
1638.438477	49546.355469
1637.408203	49122.988281
1636.375977	48629.476562
1635.344727	49280.042969
1634.313477	48888.445312
1633.281250	48693.218750
1632.249023	48757.238281
1631.216797	48583.894531
1630.184570	48672.121094
1629.151367	48443.171875
1628.119141	48400.679688
1627.085938	49045.507812
1626.052734	48243.148438
1625.019531	48546.656250
1623.985352	48719.445312
1622.952148	48244.042969
1621.917969	48561.894531
1620.883789	48345.359375
1619.849609	47759.085938
1618.815430	48494.925781
1617.780273	48077.968750
1616.745117	48028.355469
1615.709961	48287.925781
1614.674805	48199.648438
1613.639648	48261.101562
1612.604492	48221.140625
1611.568359	48207.742188
1610.532227	48184.691406
1609.496094	48369.148438
1608.459961	47858.777344
1607.423828	47949.156250
1606.386719	48037.093750
1605.349609	48151.515625
1604.312500	48330.980469
1603.275391	48279.003906
1602.238281	47648.691406
1601.200195	48242.554688
1600.163086	47759.414062
1599.125000	47709.976562
1598.086914	48055.476562
1597.047852	47738.746094
1596.009766	47814.507812
1594.970703	48102.035156
1593.931641	47790.273438
1592.892578	47784.175781
1591.853516	47542.339844
1590.814453	47625.273438
1589.774414	48138.605469
1588.734375	47711.703125
1587.694336	47763.304688
1586.654297	47802.871094
1585.614258	47763.125000
1584.573242	47641.703125
1583.532227	48017.554688
1582.492188	47523.871094
1581.450195	47582.644531
1580.409180	47396.515625
1579.368164	48009.769531
1578.326172	47802.027344
1577.284180	47258.421875
1576.242188	47796.996094
1575.200195	47622.976562
1574.157227	47779.972656
1573.115234	47524.488281
1572.072266	47736.582031
1571.029297	47907.847656
1569.985352	47542.230469
1568.942383	47325.300781
1567.898438	47486.960938
1566.855469	47686.886719
1565.811523	47618.519531
1564.767578	47231.718750
1563.722656	47594.367188
1562.678711	47313.023438
1561.633789	47295.015625
1560.588867	47511.500000
1559.543945	47565.230469
1558.499023	47595.019531
1557.453125	47952.417969
1556.407227	47616.308594
1555.361328	47265.968750
1554.315430	47030.480469
1553.269531	47287.351562
1552.223633	47185.738281
1551.176758	47542.816406
1550.129883	47481.792969
1549.083008	47394.519531
1548.036133	47142.535156
1546.989258	47325.097656
1545.941406	47574.421875
1544.893555	47604.117188
1543.845703	47395.210938
1542.797852	47551.351562
1541.750000	47430.769531
1540.701172	47439.000000
1539.652344	47063.375000
1538.603516	47186.082031
1537.554688	47275.378906
1536.505859	47405.148438
1535.456055	47329.980469
1534.407227	47400.140625
1533.357422	47575.062500
1532.307617	47295.113281
1531.256836	46960.507812
1530.207031	47209.199219
1529.156250	47441.144531
1528.105469	47254.210938
1527.054688	47167.265625
1526.003906	47332.484375
1524.953125	46948.273438
1523.901367	46851.914062
1522.849609	47126.453125
1521.797852	46866.078125
1520.746094	47221.316406
1519.694336	46754.296875
1518.641602	46563.019531
1517.588867	46585.578125
1516.536133	46738.742188
1515.483398	46359.988281
1514.430664	47033.035156
1513.376953	47034.125000
1512.323242	46961.644531
1511.269531	46772.929688
1510.215820	46615.117188
1509.162109	46929.359375
1508.107422	47046.656250
1507.053711	46919.695312
1505.999023	46769.074219
1504.944336	46516.589844
1503.888672	46527.230469
1502.833984	46530.761719
1501.778320	46823.289062
1500.722656	46364.910156
1499.666992	46640.785156
1498.611328	46206.273438
1497.555664	46290.332031
1496.499023	46596.832031
1495.442383	46441.785156
1494.385742	46298.625000
1493.329102	45876.378906
1492.271484	46267.871094
1491.214844	46235.949219
1490.157227	45823.394531
1489.099609	46351.781250
1488.041992	46088.242188
1486.983398	46257.218750
1485.925781	46036.312500
1484.867188	46023.351562
1483.808594	46140.285156
1482.750000	45917.152344
1481.691406	46045.863281
1480.631836	45848.789062
1479.572266	46317.300781
1478.512695	45825.296875
1477.453125	45795.859375
1476.393555	45490.460938
1475.333008	45284.222656
1474.273438	45738.257812
1473.212891	45737.140625
1472.152344	45776.093750
1471.090820	45553.441406
1470.030273	45813.890625
1468.968750	45902.273438
1467.907227	45729.175781
1466.845703	45746.890625
1465.784180	45430.257812
1464.721680	45751.691406
1463.660156	45131.542969
1462.597656	45267.003906
1461.535156	45955.328125
1460.472656	45551.890625
1459.409180	45510.800781
1458.345703	45709.585938
1457.283203	45428.660156
1456.219727	45742.570312
1455.155273	45428.832031
1454.091797	45185.703125
1453.027344	45330.316406
1451.963867	45167.156250
1450.899414	45356.343750
1449.833984	44904.406250
1448.769531	45119.390625
1447.704102	44871.871094
1446.639648	45042.195312
1445.574219	45360.281250
1444.507812	45042.464844
1443.442383	45158.707031
1442.375977	44883.250000
1441.310547	45034.648438
1440.244141	45094.558594
1439.177734	44716.121094
1438.110352	45047.917969
1437.043945	45203.855469
1435.976562	45008.328125
1434.909180	44646.566406
1433.841797	45062.433594
1432.773438	44843.617188
1431.706055	44711.496094
1430.637695	44696.453125
1429.569336	44599.503906
1428.500977	44827.816406
1427.432617	44798.714844
1426.363281	44416.445312
1425.294922	44829.406250
1424.225586	44730.171875
1423.156250	44563.179688
1422.085938	44571.539062
1421.016602	44292.464844
1419.946289	44648.992188
1418.875977	44577.906250
1417.805664	44548.878906
1416.735352	44316.703125
1415.664062	44194.343750
1414.593750	44748.976562
1413.522461	44568.230469
1412.451172	44632.562500
1411.379883	44454.234375
1410.307617	44250.304688
1409.235352	44650.496094
1408.164062	44381.308594
1407.090820	44315.050781
1406.018555	44535.523438
1404.946289	44306.117188
1403.873047	44146.699219
1402.799805	44327.472656
1401.726562	44210.027344
1400.653320	44290.578125
1399.580078	44159.210938
1398.505859	43885.875000
1397.431641	44329.546875
1396.357422	44212.199219
1395.283203	44304.300781
1394.208008	44096.269531
1393.133789	43948.781250
1392.058594	44217.617188
1390.983398	44044.582031
1389.908203	44069.207031
1388.832031	43749.832031
1387.756836	44053.359375
1386.680664	43868.855469
1385.604492	43663.507812
1384.528320	43379.261719
1383.451172	43893.949219
1382.375000	43916.238281
1381.297852	43894.406250
1380.220703	43754.214844
1379.143555	43885.574219
1378.065430	44144.488281
1376.988281	43691.167969
1375.910156	43794.628906
1374.832031	44000.078125
1373.753906	43523.839844
1372.674805	43650.449219
1371.596680	43779.328125
1370.517578	43674.125000
1369.438477	43659.312500
1368.359375	43343.378906
1367.279297	43724.652344
1366.200195	43316.195312
1365.120117	43220.421875
1364.040039	43724.183594
1362.959961	43697.792969
1361.878906	43666.785156
1360.798828	43390.566406
1359.717773	43366.558594
1358.636719	43740.324219
1357.555664	43216.832031
1356.473633	43361.621094
1355.392578	43541.027344
1354.310547	43385.285156
1353.228516	43509.164062
1352.146484	43434.332031
1351.063477	43505.035156
1349.981445	43728.121094
1348.898438	43431.636719
1347.815430	43513.835938
1346.732422	43259.035156
1345.649414	43188.933594
1344.565430	43358.800781
1343.481445	43254.101562
1342.397461	43333.945312
1341.313477	43575.171875
1340.229492	43138.488281
1339.144531	43582.511719
1338.059570	43417.933594
1336.974609	43781.089844
1335.889648	43743.246094
1334.804688	43449.730469
1333.718750	43407.347656
1332.632812	43238.335938
1331.546875	43589.679688
1330.460938	43441.406250
1329.375000	43468.089844
1328.288086	43462.546875
1327.201172	43392.593750
1326.114258	43485.968750
1325.027344	43556.312500
1323.940430	43638.121094
1322.852539	43122.199219
1321.764648	43541.925781
1320.676758	43561.644531
1319.588867	43448.093750
1318.500977	43504.570312
1317.412109	43335.941406
1316.324219	43286.785156
1315.235352	43313.410156
1314.145508	43482.347656
1313.056641	42707.917969
1311.966797	42948.039062
1310.876953	43266.074219
1309.787109	42971.523438
1308.697266	43314.664062
1307.607422	42985.812500
1306.516602	42902.390625
1305.425781	42562.265625
1304.334961	43063.363281
1303.244141	42908.933594
1302.153320	42869.109375
1301.061523	42597.945312
1299.969727	42972.707031
1298.877930	42454.328125
1297.786133	42721.375000
1296.694336	42615.234375
1295.601562	42561.761719
1294.508789	42041.535156
1293.416016	42484.609375
1292.323242	42426.609375
1291.230469	42272.582031
1290.136719	42022.578125
1289.042969	41964.687500
1287.949219	42011.953125
1286.855469	41965.511719
1285.760742	41816.265625
1284.666992	41479.753906
1283.572266	42100.343750
1282.477539	42081.312500
1281.381836	41861.367188
1280.287109	41954.238281
1279.191406	41743.523438
1278.095703	42174.097656
1277.000000	41904.097656
1275.904297	41385.554688
1274.808594	41695.078125
1273.711914	41694.375000
1272.615234	41509.003906
1271.518555	41476.417969
1270.421875	41484.867188
1269.324219	41821.425781
1268.226562	41444.792969
1267.129883	41799.457031
1266.031250	41156.507812
1264.933594	41417.738281
1263.835938	41312.347656
1262.737305	41209.273438
1261.638672	41085.750000
1260.540039	41137.468750
1259.441406	40982.152344
1258.341797	41231.746094
1257.242188	41433.496094
1256.142578	41107.679688
1255.042969	41141.152344
1253.943359	40949.601562
1252.842773	40787.660156
1251.743164	40843.890625
1250.642578	41127.253906
1249.541016	40667.835938
1248.440430	40948.859375
1247.338867	40768.890625
1246.238281	40759.234375
1245.136719	40897.097656
1244.034180	40905.570312
1242.932617	40591.882812
1241.831055	40750.113281
1240.728516	40894.675781
1239.625977	40896.332031
1238.522461	40381.093750
1237.419922	40691.109375
1236.316406	40457.105469
1235.213867	40576.656250
1234.110352	40700.695312
1233.005859	40829.218750
1231.902344	40584.031250
1230.797852	40558.558594
1229.693359	40711.929688
1228.588867	40473.683594
1227.484375	40418.820312
1226.379883	40468.050781
1225.274414	40279.742188
1224.168945	40518.960938
1223.063477	40439.250000
1221.958008	40558.523438
1220.851562	40747.828125
1219.746094	40539.289062
1218.639648	40233.652344
1217.533203	40526.835938
1216.425781	40149.027344
1215.319336	40166.582031
1214.211914	40105.101562
1213.104492	40587.726562
1211.997070	40564.558594
1210.889648	40137.429688
1209.781250	40439.269531
1208.672852	40294.312500
1207.564453	40009.558594
1206.456055	40331.550781
1205.347656	40197.960938
1204.238281	39947.191406
1203.128906	40117.996094
1202.019531	40142.261719
1200.910156	39884.871094
1199.800781	40269.601562
1198.690430	40737.523438
1197.580078	40011.765625
1196.469727	40150.843750
1195.359375	39925.195312
1194.249023	39962.953125
1193.137695	40407.996094
1192.026367	40009.179688
1190.915039	40006.406250
1189.803711	40113.839844
1188.691406	39854.703125
1187.580078	40180.195312
1186.467773	39864.941406
1185.355469	40181.320312
1184.242188	40018.972656
1183.129883	39521.941406
1182.016602	39975.222656
1180.903320	40120.667969
1179.790039	40014.578125
1178.676758	40072.406250
1177.562500	39746.390625
1176.449219	39911.960938
1175.334961	39720.718750
1174.219727	40025.316406
1173.105469	39697.296875
1171.990234	39894.144531
1170.875977	39626.804688
1169.760742	39581.488281
1168.644531	39652.730469
1167.529297	39786.691406
1166.413086	39436.660156
1165.297852	39514.605469
1164.181641	39509.656250
1163.064453	39480.074219
1161.948242	39949.761719
1160.831055	39255.292969
1159.713867	39474.187500
1158.596680	39773.554688
1157.479492	39160.031250
1156.362305	39401.187500
1155.244141	39197.210938
1154.125977	39279.511719
1153.007812	39379.667969
1151.888672	39066.281250
1150.770508	39052.460938
1149.651367	39429.660156
1148.532227	39100.789062
1147.413086	39216.511719
1146.293945	38923.527344
1145.173828	39287.070312
1144.053711	39454.035156
1142.933594	39225.886719
1141.813477	38781.363281
1140.693359	38876.929688
1139.572266	38566.472656
1138.451172	38822.617188
1137.330078	38632.691406
1136.208984	38730.437500
1135.086914	38977.492188
1133.965820	38985.988281
1132.843750	39146.000000
1131.721680	38753.449219
1130.599609	39151.777344
1129.476562	38979.839844
1128.353516	38698.855469
1127.230469	38673.992188
1126.107422	38862.812500
1124.984375	38593.125000
1123.860352	38617.238281
1122.737305	38539.007812
1121.613281	38712.140625
1120.488281	38689.511719
1119.364258	38795.847656
1118.239258	38575.363281
1117.115234	38210.492188
1115.990234	38545.734375
1114.864258	38538.703125
1113.739258	38251.781250
1112.613281	38426.917969
1111.487305	38091.265625
1110.361328	38297.449219
1109.235352	38206.109375
1108.108398	38414.410156
1106.982422	38347.488281
1105.855469	38362.671875
1104.728516	38149.386719
1103.600586	38049.277344
1102.473633	38073.371094
1101.345703	38691.585938
1100.217773	38312.152344
1099.089844	38708.484375
1097.960938	38198.453125
1096.833008	38036.410156
1095.704102	38144.636719
1094.575195	38372.402344
1093.446289	38008.929688
1092.316406	38090.531250
1091.187500	38194.238281
1090.057617	38366.500000
1088.927734	37939.125000
1087.796875	38144.550781
1086.666992	38425.093750
1085.536133	38135.035156
1084.405273	37482.503906
1083.274414	38026.050781
1082.143555	37871.027344
1081.011719	37837.589844
1079.879883	38228.332031
1078.748047	37874.562500
1077.616211	37730.714844
1076.484375	37639.914062
1075.351562	37904.566406
1074.218750	37895.429688
1073.085938	38087.113281
1071.953125	37722.710938
1070.820312	38022.445312
1069.686523	37589.816406
1068.552734	37633.660156
1067.418945	37454.804688
1066.284180	37893.234375
1065.150391	37725.414062
1064.015625	37302.039062
1062.880859	38013.445312
1061.746094	37788.417969
1060.611328	37717.636719
1059.475586	37618.250000
1058.339844	37829.320312
1057.204102	37879.628906
1056.068359	37476.562500
1054.932617	37852.562500
1053.795898	37680.636719
1052.659180	37601.156250
1051.522461	37424.937500
1050.385742	37758.890625
1049.248047	37582.707031
1048.110352	37545.054688
1046.972656	37386.550781
1045.834961	37612.601562
1044.697266	37458.531250
1043.558594	37286.949219
1042.419922	37541.433594
1041.281250	37499.429688
1040.142578	37108.414062
1039.003906	37615.179688
1037.864258	37263.781250
1036.724609	37364.457031
1035.584961	37283.031250
1034.445312	37320.062500
1033.304688	37473.292969
1032.165039	36997.273438
1031.024414	37196.531250
1029.883789	37395.714844
1028.742188	36968.171875
1027.601562	37195.800781
1026.459961	37302.878906
1025.318359	37392.394531
1024.176758	37256.359375
1023.034180	36730.714844
1021.892578	36896.886719
1020.750000	36964.523438
1019.607422	36984.000000
1018.463867	36817.531250
1017.321289	37219.765625
1016.177734	36937.417969
1015.034180	36930.640625
1013.890625	36867.035156
1012.747070	36866.828125
1011.602539	37078.574219
1010.458008	36844.566406
1009.313477	36822.515625
1008.168945	36981.734375
1007.024414	36913.808594
1005.878906	36651.617188
1004.733398	36917.726562
1003.587891	36500.683594
1002.442383	36987.085938
1001.295898	36465.472656
1000.149414	36925.527344
999.002930	36761.738281
997.856445	36890.167969
996.709961	36593.472656
995.562500	36841.753906
994.415039	36710.781250
993.267578	36767.222656
992.120117	36895.523438
990.972656	36688.382812
989.824219	36429.058594
988.675781	36727.156250
987.527344	36927.195312
986.378906	36602.675781
985.229492	36545.906250
984.080078	36450.000000
982.930664	36508.554688
981.781250	37080.308594
980.631836	36684.300781
979.481445	36527.562500
978.331055	36446.953125
977.180664	36220.773438
976.030273	36305.371094
974.879883	36452.929688
973.728516	36326.773438
972.577148	36628.445312
971.425781	36435.000000
970.273438	36334.964844
969.122070	36417.265625
967.969727	36306.414062
966.817383	36332.281250
965.665039	36171.593750
964.511719	36674.582031
963.359375	36509.554688
962.206055	36325.070312
961.052734	36197.011719
959.898438	36259.699219
958.745117	36461.031250
957.590820	36426.164062
956.436523	36278.675781
955.282227	36538.359375
954.127930	36315.125000
952.972656	36206.703125
951.817383	36377.511719
950.662109	36310.226562
949.506836	36318.691406
948.350586	36366.082031
947.195312	36482.664062
946.039062	35796.984375
944.882812	36211.964844
943.725586	35969.695312
942.569336	36246.175781
941.412109	36042.878906
940.254883	36351.648438
939.097656	35992.886719
937.939453	36210.847656
936.782227	35938.609375
935.624023	36018.335938
934.465820	35949.113281
933.306641	35899.332031
932.148438	35912.136719
930.989258	36229.089844
929.830078	35812.636719
928.670898	36073.421875
927.510742	36068.933594
926.351562	35891.996094
925.191406	35743.144531
924.031250	35402.570312
922.871094	35745.050781
921.709961	36233.871094
920.548828	35744.796875
919.387695	35568.105469
918.226562	35561.550781
917.065430	35578.667969
915.903320	35612.996094
914.741211	35640.855469
913.579102	35483.703125
912.416992	35485.761719
911.254883	35612.542969
910.091797	35457.625000
908.928711	35631.648438
907.765625	35698.148438
906.601562	35422.964844
905.438477	35401.390625
904.274414	35399.156250
903.110352	35476.382812
901.946289	35757.562500
900.781250	35495.496094
899.617188	35115.468750
898.452148	35254.917969
897.287109	34978.062500
896.121094	35355.601562
894.956055	35233.253906
893.790039	35424.039062
892.624023	35068.019531
891.458008	35078.695312
890.291016	35070.078125
889.125000	35175.031250
887.958008	35183.531250
886.791016	35290.566406
885.623047	35005.632812
884.456055	35116.937500
883.288086	35121.156250
882.120117	34960.554688
880.952148	35037.558594
879.783203	35003.269531
878.615234	35225.710938
877.446289	35204.230469
876.277344	34951.796875
875.107422	35184.808594
873.938477	34968.808594
872.768555	34716.554688
871.598633	34968.707031
870.428711	35319.046875
869.257812	34981.417969
868.087891	35177.847656
866.916992	35113.687500
865.746094	35203.269531
864.575195	34859.503906
863.403320	35134.765625
862.231445	35098.398438
861.059570	34989.507812
859.887695	35121.679688
858.715820	35215.417969
857.542969	34776.070312
856.370117	34903.941406
855.197266	34995.527344
854.024414	34982.664062
852.850586	35001.757812
851.676758	34697.050781
850.503906	35059.093750
849.329102	34820.496094
848.155273	34958.828125
846.980469	35141.808594
845.805664	35526.906250
844.630859	34798.988281
843.456055	35418.019531
842.280273	35092.406250
841.105469	35002.968750
839.929688	35090.046875
838.753906	34673.253906
837.577148	35040.921875
836.400391	34679.539062
835.224609	35189.421875
834.046875	35002.339844
832.870117	35072.320312
831.693359	34774.902344
830.515625	34897.972656
829.337891	35447.667969
828.160156	34980.550781
826.981445	35249.925781
825.803711	34899.703125
824.625000	35132.929688
823.446289	35298.203125
822.266602	34888.789062
821.087891	34933.203125
819.908203	34996.679688
818.728516	34998.667969
817.548828	34716.738281
816.368164	35127.632812
815.188477	34555.605469
814.007812	34705.906250
812.827148	34743.933594
811.645508	35152.394531
810.464844	35052.753906
809.283203	34934.105469
808.101562	34878.964844
806.919922	35012.105469
805.737305	34760.285156
804.554688	34791.902344
803.373047	34481.015625
802.189453	34821.269531
801.006836	34909.910156
799.823242	34916.113281
798.640625	34487.128906
797.457031	34939.062500
796.272461	34522.902344
795.088867	34841.644531
793.904297	34822.515625
792.719727	34647.207031
791.535156	34617.562500
790.350586	35123.820312
789.165039	34718.621094
787.979492	34720.613281
786.793945	34507.523438
785.608398	34671.882812
784.421875	34800.347656
783.236328	34749.632812
782.049805	34391.300781
780.862305	34361.742188
779.675781	34742.914062
778.488281	34418.472656
777.300781	34433.136719
776.113281	34854.074219
774.925781	34346.683594
773.737305	34491.812500
772.549805	34230.828125
771.361328	34367.511719
770.171875	34022.519531
768.983398	34483.007812
767.793945	34611.152344
766.604492	34510.132812
765.415039	34346.097656
764.225586	34644.386719
763.035156	34224.093750
761.845703	34780.640625
760.655273	34293.269531
759.463867	34076.933594
758.273438	34284.718750
757.082031	34213.281250
755.890625	34206.917969
754.699219	34246.714844
753.507812	34177.417969
752.315430	33942.457031
751.123047	34514.886719
749.930664	34256.886719
748.738281	34720.042969
747.544922	33946.550781
746.351562	34818.179688
745.158203	34292.156250
743.964844	33898.285156
742.771484	33881.507812
741.577148	34243.707031
740.382812	34224.773438
739.188477	34197.472656
737.994141	34308.296875
736.798828	34044.566406
735.603516	34220.218750
734.408203	34017.253906
733.212891	33806.000000
732.016602	34182.296875
730.821289	34420.492188
729.625000	33912.511719
728.428711	34184.101562
727.231445	33709.777344
726.035156	34169.281250
724.837891	33878.906250
723.640625	34171.171875
722.442383	33958.136719
721.245117	34043.648438
720.046875	33932.968750
718.848633	34179.097656
717.650391	33632.457031
716.451172	34059.996094
715.252930	33843.042969
714.053711	33922.214844
712.854492	33663.675781
711.654297	33976.261719
710.455078	33774.062500
709.254883	33821.933594
708.054688	33921.855469
706.853516	34086.296875
705.653320	34036.218750
704.452148	33827.945312
703.250977	33900.730469
702.049805	33923.542969
700.847656	33833.992188
699.646484	34027.378906
698.444336	34129.183594
697.242188	34081.226562
696.039062	33987.554688
694.836914	33706.835938
693.633789	33904.214844
692.430664	33692.183594
691.227539	34051.527344
690.023438	33912.242188
688.819336	33868.535156
687.615234	33864.289062
686.411133	34073.863281
685.207031	33799.765625
684.001953	33795.531250
682.796875	33978.023438
681.591797	33782.914062
680.386719	33853.343750
679.180664	33925.820312
677.974609	33790.949219
676.768555	33664.417969
675.562500	33678.855469
674.356445	33747.160156
673.149414	33925.234375
671.942383	33744.914062
670.735352	33823.515625
669.527344	33740.589844
668.320312	34026.171875
667.112305	33814.914062
665.904297	33750.652344
664.695312	34019.515625
663.487305	33831.128906
662.278320	33816.535156
661.069336	33655.132812
659.860352	33663.312500
658.650391	33793.445312
657.440430	33758.195312
656.230469	33468.812500
655.020508	33650.546875
653.810547	34009.843750
652.599609	33792.847656
651.388672	33565.609375
650.177734	33495.339844
648.966797	33548.929688
647.754883	33511.703125
646.542969	33257.859375
645.331055	33305.269531
644.119141	33472.277344
642.906250	33793.875000
641.694336	33519.542969
640.481445	33206.152344
639.267578	33467.847656
638.054688	33381.230469
636.840820	33226.660156
635.626953	33162.769531
634.413086	33327.484375
633.199219	33037.121094
631.984375	33572.328125
630.769531	33415.800781
629.554688	33349.871094
628.339844	33214.015625
627.124023	33302.417969
625.909180	33364.050781
624.693359	33104.890625
623.476562	33236.429688
622.260742	33396.699219
621.043945	33369.894531
619.827148	33375.972656
618.610352	33657.320312
617.393555	33225.859375
616.175781	33782.296875
614.958008	33784.183594
613.740234	33471.996094
612.522461	33670.960938
611.303711	33525.117188
610.084961	33933.253906
608.866211	33563.832031
607.647461	33350.410156
606.427734	33262.144531
605.208984	33481.414062
603.989258	33407.500000
602.768555	33104.093750
601.548828	33181.890625
600.328125	33169.527344
599.107422	33194.027344
597.886719	33355.718750
596.666016	33005.507812
595.444336	33064.824219
594.222656	33111.835938
593.000977	32680.011719
591.779297	32964.390625
590.556641	33009.343750
589.334961	32649.357422
588.112305	32996.960938
586.888672	32851.757812
585.666016	33007.062500
584.442383	32680.037109
583.218750	32827.140625
581.995117	32524.781250
580.770508	32753.550781
579.546875	32829.082031
578.322266	32863.753906
577.097656	32894.328125
575.872070	32767.742188
574.647461	33077.863281
573.421875	32700.359375
572.196289	32810.480469
570.969727	32892.011719
569.744141	32567.761719
568.517578	32590.185547
567.291016	32496.425781
566.064453	32765.421875
564.836914	32476.070312
563.609375	32948.667969
562.381836	32946.550781
561.154297	32828.367188
559.926758	33029.859375
558.698242	32716.296875
557.469727	32797.656250
556.241211	32482.218750
555.012695	32404.912109
553.783203	32524.927734
552.553711	32366.296875
551.324219	32470.005859
550.094727	32866.398438
548.864258	32498.449219
547.633789	32374.480469
546.403320	32539.052734
545.172852	32504.498047
543.941406	32356.222656
542.710938	32382.626953
541.479492	32451.652344
540.247070	32352.179688
539.015625	32005.162109
537.783203	32224.359375
536.550781	32305.527344
535.318359	32100.685547
534.085938	32244.707031
532.852539	32131.185547
531.619141	32175.816406
530.385742	31861.703125
529.152344	32056.312500
527.917969	31857.816406
526.683594	31938.919922
525.449219	31754.693359
524.214844	31675.824219
522.979492	31637.470703
521.744141	31878.447266
520.508789	31850.185547
519.273438	31771.351562
518.037109	31587.355469
516.801758	31731.072266
515.565430	31818.115234
514.328125	31971.839844
513.091797	31587.824219
511.854492	31682.923828
510.617188	31701.203125
509.379883	31800.283203
508.142578	31477.177734
506.904297	31630.785156
505.666016	31814.619141
504.427734	31905.521484
503.189453	31524.101562
501.950195	31689.685547
500.710938	31859.242188
499.471680	32006.542969
498.232422	31843.199219
496.992188	32079.167969
495.751953	32050.943359
494.511719	31879.617188
493.271484	31726.492188
492.030273	31537.154297
490.790039	31922.023438
489.548828	31664.238281
488.306641	31791.173828
487.065430	31809.339844
485.823242	31591.974609
484.581055	31573.941406
483.338867	31825.550781
482.095703	31747.121094
480.853516	31300.617188
479.610352	31499.843750
478.367188	31327.011719
477.123047	31514.091797
475.879883	31357.398438
474.635742	31650.908203
473.391602	31526.392578
472.146484	31560.617188
470.902344	31323.689453
469.657227	31576.816406
468.412109	31259.664062
467.166016	31440.443359
465.920898	31157.550781
464.674805	31424.558594
463.428711	31380.507812
462.182617	31388.621094
460.935547	31344.589844
459.688477	31270.500000
458.441406	31420.957031
457.194336	31398.986328
455.946289	31260.798828
454.699219	31278.935547
453.451172	31285.044922
452.202148	30814.492188
450.954102	31183.115234
449.705078	31449.496094
448.456055	31183.341797
447.207031	31239.486328
445.958008	31043.500000
444.708008	31069.638672
443.458008	30943.759766
442.208008	31159.880859
440.957031	31008.037109
439.707031	31016.166016
438.456055	31082.251953
437.205078	30586.810547
435.953125	30684.914062
434.702148	30759.009766
433.450195	30908.964844
432.198242	30871.171875
430.945312	30941.193359
429.693359	30584.050781
428.440430	30608.199219
427.187500	30560.509766
425.934570	30604.597656
424.680664	30493.101562
423.426758	30531.199219
422.172852	30924.160156
420.918945	31025.947266
419.664062	30790.886719
418.410156	31115.824219
417.155273	31271.300781
415.899414	31685.652344
414.644531	31805.113281
413.388672	32042.000000
412.132812	31852.791016
410.876953	32021.906250
409.620117	31679.544922
408.364258	31319.408203
407.107422	31052.894531
405.849609	30613.457031
404.592773	30844.279297
403.334961	30731.082031
402.077148	30510.593750
400.819336	30518.724609
399.561523	30644.078125
398.302734	30391.941406
397.043945	30332.556641
395.785156	30801.408203
394.525391	30245.615234
393.266602	30384.789062
392.006836	30458.416016
390.747070	30341.523438
389.486328	30044.138672
388.226562	29875.794922
386.965820	30131.906250
385.705078	30370.072266
384.443359	30193.828125
383.182617	29763.951172
381.920898	29873.242188
380.659180	30259.867188
379.396484	30105.560547
378.134766	30038.453125
376.872070	29870.384766
375.609375	30326.001953
374.346680	29857.072266
373.083008	29770.267578
371.819336	29980.291016
370.555664	30089.341797
369.291992	29672.230469
368.027344	29692.306641
366.762695	29910.087891
365.498047	29746.269531
364.233398	29908.617188
362.968750	29604.560547
361.703125	29436.939453
360.437500	29778.996094
359.170898	29723.968750
357.905273	29720.300781
356.638672	29687.017578
355.372070	29326.103516
354.105469	29442.884766
352.837891	29466.886719
351.571289	29337.013672
350.303711	29435.970703
349.035156	29406.716797
347.767578	29365.642578
346.499023	29490.158203
345.230469	29210.619141
343.961914	28950.886719
342.692383	29173.908203
341.423828	29146.697266
340.154297	29395.191406
338.883789	29245.876953
337.614258	29153.701172
336.343750	29171.777344
335.073242	29036.359375
333.802734	29178.392578
332.532227	29050.890625
331.260742	28958.833984
329.989258	29295.457031
328.717773	28937.990234
327.445312	29005.210938
326.173828	29001.660156
324.901367	28931.306641
323.627930	29071.167969
322.355469	29028.320312
321.082031	28950.142578
319.808594	29027.091797
318.535156	29090.271484
317.261719	29084.736328
315.987305	29016.412109
314.712891	29195.296875
313.438477	29170.126953
312.164062	29158.691406
310.888672	29010.011719
309.613281	29324.017578
308.337891	29406.630859
307.061523	29293.255859
305.786133	29818.615234
304.509766	29713.037109
303.233398	30020.728516
301.956055	30463.404297
300.678711	30911.785156
299.402344	30995.933594
298.124023	31262.042969
296.846680	31551.529297
295.568359	31991.529297
294.290039	32501.769531
293.011719	32084.933594
291.733398	31556.816406
290.454102	30639.912109
289.174805	30004.781250
287.895508	29164.722656
286.616211	28877.849609
285.335938	28649.677734
284.055664	28540.716797
282.775391	28630.947266
281.494141	28129.656250
280.213867	28335.078125
278.932617	28157.957031
277.651367	27694.109375
276.369141	27995.072266
275.087891	27956.580078
273.805664	27785.509766
272.523438	27672.988281
271.240234	27835.332031
269.958008	27748.175781
268.674805	27631.824219
267.390625	27772.652344
266.107422	27705.029297
264.823242	27719.214844
263.539062	27667.201172
262.254883	27432.232422
260.970703	27401.695312
259.685547	27505.429688
258.400391	27525.468750
257.115234	27432.687500
255.830078	27458.566406
254.543945	27200.566406
253.257812	27568.603516
251.971680	27316.509766
250.684570	27315.179688
249.398438	27364.361328
248.111328	27477.623047
246.824219	27600.550781
245.536133	27692.363281
244.248047	27557.005859
242.960938	27398.406250
241.671875	27098.205078
240.383789	27091.087891
239.094727	26820.152344
237.805664	27356.138672
236.516602	27180.271484
235.227539	27018.039062
233.937500	27350.148438
232.647461	27339.107422
231.357422	27814.408203
230.066406	28527.808594
228.775391	29589.570312
227.485352	30404.988281
226.193359	30077.777344
224.902344	28945.414062
223.610352	27708.970703
222.318359	26976.103516
221.026367	26771.675781
219.733398	26493.822266
218.441406	26448.142578
217.148438	26535.892578
215.854492	26451.556641
214.561523	26454.226562
213.267578	26520.664062
211.973633	26138.837891
210.679688	25963.847656
209.384766	26011.023438
208.090820	25979.011719
206.795898	25543.519531
205.500000	25868.697266
204.205078	25780.761719
202.909180	25528.853516
201.613281	25589.556641
200.317383	25465.074219
199.020508	25431.273438
197.723633	25445.683594
196.426758	25377.199219
195.129883	25566.992188
193.832031	25311.599609
192.534180	25214.277344
191.236328	25190.187500
189.938477	25343.275391
188.639648	25138.175781
187.341797	24908.130859
186.042969	25161.263672
184.743164	25346.949219
183.444336	25180.480469
182.144531	24892.890625
180.844727	25018.896484
179.543945	25279.451172
178.244141	24995.849609
176.943359	24883.419922
175.642578	25041.996094
174.340820	24870.037109
173.040039	24847.978516
171.738281	24854.738281
170.435547	24798.125000
169.133789	24833.687500
167.831055	24633.132812
166.528320	25092.841797
165.225586	24713.867188
163.922852	24689.941406
162.619141	24671.779297
161.315430	24507.878906
160.011719	24422.648438
158.708008	24531.062500
157.403320	24597.267578
156.098633	24243.798828
154.793945	24411.570312
153.488281	24046.777344
152.182617	24358.152344
150.876953	24121.794922
149.571289	23759.177734
148.265625	24133.587891
146.958984	24052.408203
145.652344	23911.947266
144.345703	23717.978516
143.038086	24055.767578
141.730469	23879.052734
140.422852	23866.818359
139.115234	23806.802734
137.806641	23748.720703
136.498047	23469.017578
135.189453	23510.357422
133.880859	23414.162109
132.571289	23321.822266
131.262695	22778.939453
129.952148	22753.564453
128.642578	22453.375000
127.332031	22063.619141
126.021484	21630.132812
124.710938	21398.996094
123.400391	20792.263672
122.088867	20569.000000
120.777344	20227.632812
119.465820	19707.238281
