#Wave		#Intensity
1999.057617	23466.904297
1998.089844	23544.404297
1997.122070	23227.773438
1996.154297	23182.406250
1995.186523	23353.939453
1994.217773	23615.765625
1993.249023	23278.691406
1992.280273	23687.533203
1991.311523	23378.943359
1990.341797	23478.056641
1989.373047	23553.919922
1988.403320	23384.769531
1987.433594	23393.583984
1986.463867	23636.984375
1985.494141	23467.904297
1984.524414	23389.078125
1983.553711	23689.035156
1982.583008	23350.007812
1981.613281	23459.263672
1980.641602	23568.482422
1979.670898	23461.380859
1978.700195	23305.402344
1977.728516	23296.189453
1976.756836	23516.013672
1975.785156	23390.980469
1974.813477	23340.593750
1973.841797	23351.953125
1972.869141	23594.755859
1971.897461	23408.083984
1970.924805	23522.253906
1969.952148	23507.867188
1968.979492	23511.474609
1968.005859	23394.316406
1967.033203	23492.992188
1966.059570	23643.000000
1965.085938	23548.992188
1964.112305	23555.150391
1963.138672	23461.187500
1962.165039	23462.226562
1961.190430	23663.429688
1960.215820	23579.757812
1959.242188	23414.023438
1958.266602	23430.453125
1957.291992	23400.716797
1956.317383	23658.160156
1955.341797	23430.998047
1954.366211	23798.556641
1953.390625	23748.273438
1952.415039	23175.310547
1951.439453	23696.425781
1950.463867	23377.244141
1949.487305	23601.078125
1948.510742	23233.373047
1947.534180	23697.791016
1946.557617	23268.767578
1945.580078	23512.933594
1944.603516	23424.388672
1943.625977	23422.853516
1942.648438	23370.164062
1941.670898	23578.333984
1940.693359	23448.927734
1939.715820	23449.941406
1938.737305	23507.185547
1937.758789	23457.078125
1936.780273	23478.527344
1935.801758	23487.197266
1934.823242	23291.527344
1933.844727	23828.845703
1932.865234	23577.009766
1931.885742	23792.431641
1930.906250	23724.460938
1929.926758	23317.105469
1928.947266	23450.808594
1927.966797	23518.136719
1926.986328	23483.416016
1926.006836	23553.263672
1925.026367	23357.914062
1924.044922	23379.322266
1923.064453	23321.707031
1922.083008	23480.722656
1921.102539	23777.269531
1920.121094	23739.992188
1919.139648	23501.511719
1918.157227	23652.740234
1917.175781	23579.855469
1916.193359	23641.917969
1915.211914	23294.171875
1914.229492	23480.955078
1913.246094	23278.384766
1912.263672	23439.664062
1911.281250	23504.236328
1910.297852	23324.652344
1909.314453	23442.613281
1908.331055	23382.582031
1907.347656	23210.736328
1906.363281	23270.203125
1905.379883	23553.240234
1904.395508	23300.160156
1903.411133	23138.605469
1902.426758	23431.671875
1901.442383	23293.000000
1900.458008	23169.607422
1899.472656	23363.523438
1898.487305	23349.281250
1897.501953	23538.021484
1896.516602	23176.208984
1895.531250	23598.257812
1894.544922	23282.205078
1893.559570	23270.519531
1892.573242	23271.513672
1891.586914	23297.849609
1890.599609	23278.562500
1889.613281	23309.955078
1888.625977	23027.212891
1887.639648	23433.492188
1886.652344	23338.220703
1885.665039	23298.681641
1884.676758	23550.277344
1883.689453	23315.826172
1882.701172	23104.230469
1881.713867	23370.906250
1880.725586	23252.972656
1879.736328	23140.136719
1878.748047	23191.712891
1877.759766	23309.007812
1876.770508	23211.388672
1875.781250	23197.208984
1874.791992	23370.033203
1873.802734	23214.337891
1872.812500	23119.326172
1871.823242	23201.144531
1870.833008	23108.691406
1869.842773	23102.111328
1868.852539	23204.083984
1867.862305	23452.406250
1866.871094	23314.546875
1865.880859	23166.642578
1864.889648	23149.964844
1863.898438	23483.873047
1862.907227	23701.664062
1861.915039	23432.769531
1860.923828	22959.781250
1859.931641	23212.832031
1858.939453	23208.757812
1857.947266	23025.798828
1856.955078	23331.603516
1855.961914	23123.498047
1854.969727	22993.531250
1853.976562	23281.552734
1852.983398	23214.531250
1851.990234	23046.861328
1850.997070	23307.037109
1850.002930	23121.794922
1849.008789	23248.542969
1848.014648	23111.160156
1847.020508	23265.523438
1846.026367	23316.750000
1845.032227	23186.966797
1844.037109	23524.707031
1843.042969	23128.564453
1842.047852	23039.078125
1841.051758	23120.439453
1840.056641	23279.628906
1839.061523	23039.494141
1838.065430	23251.363281
1837.069336	23460.648438
1836.073242	23253.232422
1835.077148	23208.996094
1834.081055	23277.675781
1833.083984	23414.060547
1832.086914	23322.164062
1831.090820	23124.980469
1830.092773	23283.880859
1829.095703	23204.585938
1828.098633	23220.556641
1827.100586	23073.642578
1826.102539	23107.167969
1825.104492	22905.214844
1824.106445	23304.412109
1823.108398	23150.070312
1822.109375	23178.546875
1821.111328	23297.126953
1820.112305	23115.333984
1819.113281	23131.287109
1818.113281	23204.777344
1817.114258	23360.787109
1816.114258	23154.097656
1815.115234	23100.013672
1814.115234	23220.955078
1813.115234	23276.863281
1812.114258	23170.298828
1811.114258	23171.220703
1810.113281	23386.998047
1809.112305	23432.839844
1808.111328	23149.000000
1807.110352	22992.609375
1806.109375	23415.478516
1805.107422	22822.267578
1804.105469	23017.906250
1803.103516	23310.791016
1802.101562	23077.164062
1801.099609	23182.855469
1800.096680	23133.882812
1799.094727	23040.042969
1798.091797	22956.208984
1797.088867	23193.953125
1796.085938	23007.937500
1795.082031	23504.730469
1794.079102	23268.898438
1793.075195	23160.183594
1792.071289	22964.341797
1791.067383	22860.695312
1790.063477	22981.148438
1789.058594	23014.437500
1788.053711	23099.974609
1787.049805	23093.417969
1786.044922	23044.568359
1785.039062	23212.136719
1784.034180	22703.201172
1783.028320	22935.417969
1782.023438	22876.683594
1781.017578	22912.421875
1780.011719	22721.996094
1779.004883	22886.953125
1777.999023	23009.619141
1776.992188	23137.208984
1775.985352	22924.521484
1774.978516	22826.126953
1773.971680	23112.562500
1772.964844	22770.919922
1771.957031	22816.539062
1770.950195	22725.673828
1769.942383	22967.265625
1768.934570	22759.826172
1767.925781	22837.650391
1766.917969	22791.472656
1765.909180	22864.302734
1764.900391	22912.322266
1763.891602	22697.636719
1762.882812	22626.732422
1761.874023	22669.810547
1760.864258	22618.751953
1759.854492	22867.357422
1758.844727	22670.195312
1757.834961	22408.738281
1756.825195	22818.128906
1755.815430	23054.148438
1754.804688	22661.623047
1753.793945	22806.052734
1752.783203	22567.058594
1751.772461	22874.664062
1750.760742	22601.125000
1749.750000	22772.652344
1748.738281	22830.423828
1747.726562	22665.765625
1746.714844	22711.179688
1745.703125	22628.121094
1744.690430	22470.994141
1743.678711	22338.615234
1742.666016	22626.013672
1741.653320	22404.783203
1740.640625	22576.066406
1739.626953	22315.437500
1738.614258	22614.970703
1737.600586	22603.576172
1736.586914	22725.371094
1735.573242	22602.990234
1734.558594	22500.376953
1733.544922	22281.939453
1732.530273	22748.751953
1731.515625	22683.126953
1730.500977	22615.062500
1729.486328	22593.822266
1728.471680	22289.355469
1727.456055	22418.390625
1726.440430	22414.427734
1725.424805	22410.466797
1724.409180	22431.119141
1723.393555	22412.388672
1722.376953	22142.714844
1721.360352	22657.833984
1720.344727	22395.587891
1719.328125	22332.613281
1718.310547	22345.875000
1717.293945	22361.589844
1716.276367	22600.947266
1715.258789	22456.886719
1714.241211	22357.099609
1713.223633	22080.488281
1712.206055	22442.519531
1711.187500	22443.462891
1710.169922	22294.642578
1709.151367	22518.982422
1708.132812	22424.193359
1707.113281	22378.511719
1706.094727	22546.287109
1705.075195	22368.142578
1704.055664	22295.515625
1703.036133	22438.693359
1702.016602	22645.562500
1700.997070	22482.228516
1699.976562	22390.023438
1698.956055	22408.113281
1697.935547	22132.210938
1696.915039	22402.632812
1695.894531	22521.119141
1694.873047	22186.574219
1693.852539	22327.087891
1692.831055	22340.269531
1691.809570	22174.792969
1690.788086	22322.572266
1689.765625	22387.119141
1688.743164	22287.763672
1687.721680	22396.312500
1686.699219	22358.113281
1685.676758	22207.474609
1684.653320	22132.658203
1683.630859	22089.636719
1682.607422	22288.525391
1681.583984	22167.316406
1680.560547	22312.382812
1679.537109	22166.789062
1678.512695	22321.570312
1677.488281	22317.615234
1676.464844	22377.123047
1675.440430	22068.113281
1674.415039	22339.914062
1673.390625	22045.656250
1672.365234	22078.335938
1671.340820	22142.705078
1670.315430	22155.847656
1669.290039	22117.792969
1668.263672	22240.613281
1667.238281	21805.339844
1666.211914	22067.048828
1665.185547	22184.939453
1664.159180	21925.267578
1663.132812	22094.277344
1662.105469	22107.404297
1661.079102	21840.580078
1660.051758	22111.734375
1659.024414	21954.505859
1657.997070	21799.765625
1656.968750	22114.568359
1655.941406	21952.556641
1654.913086	21863.552734
1653.884766	22068.765625
1652.856445	21719.669922
1651.828125	22039.062500
1650.798828	21702.244141
1649.769531	21965.644531
1648.740234	21920.453125
1647.710938	21882.560547
1646.681641	21548.433594
1645.652344	21918.496094
1644.622070	21997.138672
1643.591797	21988.380859
1642.561523	21916.535156
1641.531250	21781.634766
1640.500977	21646.783203
1639.469727	21788.455078
1638.438477	21529.980469
1637.408203	21717.685547
1636.375977	21498.097656
1635.344727	21988.679688
1634.313477	21810.312500
1633.281250	21719.224609
1632.249023	21623.322266
1631.216797	21687.292969
1630.184570	21763.347656
1629.151367	21771.585938
1628.119141	21603.125000
1627.085938	21628.328125
1626.052734	21593.031250
1625.019531	21376.302734
1623.985352	21607.128906
1622.952148	21305.830078
1621.917969	21667.154297
1620.883789	21358.697266
1619.849609	21091.441406
1618.815430	21438.107422
1617.780273	21296.572266
1616.745117	21447.398438
1615.709961	21284.173828
1614.674805	21379.402344
1613.639648	21351.457031
1612.604492	21275.240234
1611.568359	21428.345703
1610.532227	21200.105469
1609.496094	21266.308594
1608.459961	21375.908203
1607.423828	21181.564453
1606.386719	21192.267578
1605.349609	21429.605469
1604.312500	21153.392578
1603.275391	21311.115234
1602.238281	21529.025391
1601.200195	21317.990234
1600.163086	21232.294922
1599.125000	20990.076172
1598.086914	21443.876953
1597.047852	20970.572266
1596.009766	21315.886719
1594.970703	21449.281250
1593.931641	21159.107422
1592.892578	20854.601562
1591.853516	21170.822266
1590.814453	20919.332031
1589.774414	21252.259766
1588.734375	20909.482422
1587.694336	20924.992188
1586.654297	20791.484375
1585.614258	21227.521484
1584.573242	21113.226562
1583.532227	21164.716797
1582.492188	21076.890625
1581.450195	21034.718750
1580.409180	20970.953125
1579.368164	20815.996094
1578.326172	20860.287109
1577.284180	20923.759766
1576.242188	20972.812500
1575.200195	21021.847656
1574.157227	21022.900391
1573.115234	21131.851562
1572.072266	21188.021484
1571.029297	21260.951172
1569.985352	20933.632812
1568.942383	20649.558594
1567.898438	21038.769531
1566.855469	21288.916016
1565.811523	21186.935547
1564.767578	20998.792969
1563.722656	20841.835938
1562.678711	20919.501953
1561.633789	21224.484375
1560.588867	20921.617188
1559.543945	20937.025391
1558.499023	21263.365234
1557.453125	20974.998047
1556.407227	20823.019531
1555.361328	21103.781250
1554.315430	21140.650391
1553.269531	21038.904297
1552.223633	21326.644531
1551.176758	20938.236328
1550.129883	20681.330078
1549.083008	20856.740234
1548.036133	20893.609375
1546.989258	20942.400391
1545.941406	21003.105469
1544.893555	20877.658203
1543.845703	20666.363281
1542.797852	20963.242188
1541.750000	21083.523438
1540.701172	20645.765625
1539.652344	20954.408203
1538.603516	20600.259766
1537.554688	20853.980469
1536.505859	20843.109375
1535.456055	20660.705078
1534.407227	20685.603516
1533.357422	20901.019531
1532.307617	20849.664062
1531.256836	20907.841797
1530.207031	20706.541016
1529.156250	20764.722656
1528.105469	20794.328125
1527.054688	20690.695312
1526.003906	20729.816406
1524.953125	20564.396484
1523.901367	20774.724609
1522.849609	20499.994141
1521.797852	20605.671875
1520.746094	20730.324219
1519.694336	20576.927734
1518.641602	20613.638672
1517.588867	20476.941406
1516.536133	20485.158203
1515.483398	20799.666016
1514.430664	20501.578125
1513.376953	20369.744141
1512.323242	20501.373047
1511.269531	20625.833984
1510.215820	20790.580078
1509.162109	20459.548828
1508.107422	20484.349609
1507.053711	20314.718750
1505.999023	20510.214844
1504.944336	20402.261719
1503.888672	20637.957031
1502.833984	20255.179688
1501.778320	20450.544922
1500.722656	20252.673828
1499.666992	20185.115234
1498.611328	20494.031250
1497.555664	20421.718750
1496.499023	20441.734375
1495.442383	20393.117188
1494.385742	20488.837891
1493.329102	20154.003906
1492.271484	20308.859375
1491.214844	19952.894531
1490.157227	20282.679688
1489.099609	20281.416016
1488.041992	20287.240234
1486.983398	20569.527344
1485.925781	20074.441406
1484.867188	20255.093750
1483.808594	20208.957031
1482.750000	20413.132812
1481.691406	20123.816406
1480.631836	19980.951172
1479.572266	20253.494141
1478.512695	20344.251953
1477.453125	19838.109375
1476.393555	19945.419922
1475.333008	20187.111328
1474.273438	20159.919922
1473.212891	19873.414062
1472.152344	20353.048828
1471.090820	20031.259766
1470.030273	20037.097656
1468.968750	19833.269531
1467.907227	19961.617188
1466.845703	20007.494141
1465.784180	20178.144531
1464.721680	19896.748047
1463.660156	20008.513672
1462.597656	19847.261719
1461.535156	19761.355469
1460.472656	19863.673828
1459.409180	19846.001953
1458.345703	19825.986328
1457.283203	19627.289062
1456.219727	19628.472656
1455.155273	19921.091797
1454.091797	19870.523438
1453.027344	19575.630859
1451.963867	19673.128906
1450.899414	19798.777344
1449.833984	19720.085938
1448.769531	19808.113281
1447.704102	19804.560547
1446.639648	19542.847656
1445.574219	19750.529297
1444.507812	19873.675781
1443.442383	19483.078125
1442.375977	19498.345703
1441.310547	19483.125000
1440.244141	19688.281250
1439.177734	19619.119141
1438.110352	19482.017578
1437.043945	19560.531250
1435.976562	19655.417969
1434.909180	19665.945312
1433.841797	19217.458984
1432.773438	19377.912109
1431.706055	19472.759766
1430.637695	19368.619141
1429.569336	19475.132812
1428.500977	19221.281250
1427.432617	19285.671875
1426.363281	19466.986328
1425.294922	19451.798828
1424.225586	19373.488281
1423.156250	19360.660156
1422.085938	19277.716797
1421.016602	19573.371094
1419.946289	19361.916016
1418.875977	19332.744141
1417.805664	19340.949219
1416.735352	19447.228516
1415.664062	19502.105469
1414.593750	19230.154297
1413.522461	19301.386719
1412.451172	19290.917969
1411.379883	19201.130859
1410.307617	19288.654297
1409.235352	19196.564453
1408.164062	19468.269531
1407.090820	19532.380859
1406.018555	19365.703125
1404.946289	19147.812500
1403.873047	19316.802734
1402.799805	19166.558594
1401.726562	18925.525391
1400.653320	19131.722656
1399.580078	19258.677734
1398.505859	19406.539062
1397.431641	19212.185547
1396.357422	19173.824219
1395.283203	19219.238281
1394.208008	19204.152344
1393.133789	19170.460938
1392.058594	19062.365234
1390.983398	19119.390625
1389.908203	19092.705078
1388.832031	19045.109375
1387.756836	18909.224609
1386.680664	18954.615234
1385.604492	19118.464844
1384.528320	19096.445312
1383.451172	19246.273438
1382.375000	18836.501953
1381.297852	19025.785156
1380.220703	18989.869141
1379.143555	19079.271484
1378.065430	19054.957031
1376.988281	19009.775391
1375.910156	18809.216797
1374.832031	18833.658203
1373.753906	19191.941406
1372.674805	18917.281250
1371.596680	18957.910156
1370.517578	18973.035156
1369.438477	18879.265625
1368.359375	18901.345703
1367.279297	19029.951172
1366.200195	18901.486328
1365.120117	19020.783203
1364.040039	18934.029297
1362.959961	18877.392578
1361.878906	18783.751953
1360.798828	18831.263672
1359.717773	18864.880859
1358.636719	18757.416016
1357.555664	19077.742188
1356.473633	18750.658203
1355.392578	18934.500000
1354.310547	18907.978516
1353.228516	18932.298828
1352.146484	18864.203125
1351.063477	18886.210938
1349.981445	18917.447266
1348.898438	18800.904297
1347.815430	18575.906250
1346.732422	18588.714844
1345.649414	19039.958984
1344.565430	19008.841797
1343.481445	18846.248047
1342.397461	18817.480469
1341.313477	18788.722656
1340.229492	19029.720703
1339.144531	18809.609375
1338.059570	19018.248047
1336.974609	19021.732422
1335.889648	18661.205078
1334.804688	19270.552734
1333.718750	18930.835938
1332.632812	18669.529297
1331.546875	18891.777344
1330.460938	18899.876953
1329.375000	19052.960938
1328.288086	18593.935547
1327.201172	18928.759766
1326.114258	19176.056641
1325.027344	19007.017578
1323.940430	18962.201172
1322.852539	18832.339844
1321.764648	18608.289062
1320.676758	18818.648438
1319.588867	18941.621094
1318.500977	18906.041016
1317.412109	18858.990234
1316.324219	18699.431641
1315.235352	18976.164062
1314.145508	18802.867188
1313.056641	18567.662109
1311.966797	18621.677734
1310.876953	18914.281250
1309.787109	18688.357422
1308.697266	18795.070312
1307.607422	18702.246094
1306.516602	18618.625000
1305.425781	18667.982422
1304.334961	18382.716797
1303.244141	18448.138672
1302.153320	18444.804688
1301.061523	18278.841797
1299.969727	18312.181641
1298.877930	18185.226562
1297.786133	18360.507812
1296.694336	18187.808594
1295.601562	18301.236328
1294.508789	18268.183594
1293.416016	18118.470703
1292.323242	18160.941406
1291.230469	18342.892578
1290.136719	18168.093750
1289.042969	18231.103516
1287.949219	18102.099609
1286.855469	18411.898438
1285.760742	17798.531250
1284.666992	18131.115234
1283.572266	17828.636719
1282.477539	18229.601562
1281.381836	18128.130859
1280.287109	18054.085938
1279.191406	17941.269531
1278.095703	17890.105469
1277.000000	17720.320312
1275.904297	17856.259766
1274.808594	18069.691406
1273.711914	17899.964844
1272.615234	17495.474609
1271.518555	17875.251953
1270.421875	17691.974609
1269.324219	17843.718750
1268.226562	17469.144531
1267.129883	17709.703125
1266.031250	17982.058594
1264.933594	17628.154297
1263.835938	17782.044922
1262.737305	17694.607422
1261.638672	17657.269531
1260.540039	17544.857422
1259.441406	17619.027344
1258.341797	17611.287109
1257.242188	17419.351562
1256.142578	17538.972656
1255.042969	17508.517578
1253.943359	17675.808594
1252.842773	17470.363281
1251.743164	17573.982422
1250.642578	17325.466797
1249.541016	17663.005859
1248.440430	17507.664062
1247.338867	17220.695312
1246.238281	17301.564453
1245.136719	17157.716797
1244.034180	17438.250000
1242.932617	17180.992188
1241.831055	17270.878906
1240.728516	17213.320312
1239.625977	17271.421875
1238.522461	17145.869141
1237.419922	17466.894531
1236.316406	17128.322266
1235.213867	17324.611328
1234.110352	17047.353516
1233.005859	17273.029297
1231.902344	17242.720703
1230.797852	17072.042969
1229.693359	17125.542969
1228.588867	17038.691406
1227.484375	17218.902344
1226.379883	17532.535156
1225.274414	17228.490234
1224.168945	16924.554688
1223.063477	17048.119141
1221.958008	16963.632812
1220.851562	17258.941406
1219.746094	17079.521484
1218.639648	17049.306641
1217.533203	16987.472656
1216.425781	17135.732422
1215.319336	17051.318359
1214.211914	16946.611328
1213.104492	17058.675781
1211.997070	17125.552734
1210.889648	16908.046875
1209.781250	16893.695312
1208.672852	17321.523438
1207.564453	16786.060547
1206.456055	16850.667969
1205.347656	17016.714844
1204.238281	16819.750000
1203.128906	17015.042969
1202.019531	16930.826172
1200.910156	17119.267578
1199.800781	16814.292969
1198.690430	16703.126953
1197.580078	17154.976562
1196.469727	17010.017578
1195.359375	16856.103516
1194.249023	17039.847656
1193.137695	16597.949219
1192.026367	16943.662109
1190.915039	17048.556641
1189.803711	16820.554688
1188.691406	16644.351562
1187.580078	16947.085938
1186.467773	16757.435547
1185.355469	16617.298828
1184.242188	16735.615234
1183.129883	16941.505859
1182.016602	16857.562500
1180.903320	16823.058594
1179.790039	16725.693359
1178.676758	16729.386719
1177.562500	16847.550781
1176.449219	16541.527344
1175.334961	16632.755859
1174.219727	16643.191406
1173.105469	16658.107422
1171.990234	16726.837891
1170.875977	16833.656250
1169.760742	16655.742188
1168.644531	16758.052734
1167.529297	16530.916016
1166.413086	16637.691406
1165.297852	16834.029297
1164.181641	16629.396484
1163.064453	16615.173828
1161.948242	16641.255859
1160.831055	16582.265625
1159.713867	16532.250000
1158.596680	16464.349609
1157.479492	16570.974609
1156.362305	16362.172852
1155.244141	16466.541016
1154.125977	16586.521484
1153.007812	16487.371094
1151.888672	16343.553711
1150.770508	16456.785156
1149.651367	16424.742188
1148.532227	16383.773438
1147.413086	16376.322266
1146.293945	16337.609375
1145.173828	16502.087891
1144.053711	16456.667969
1142.933594	16377.784180
1141.813477	16403.810547
1140.693359	16193.329102
1139.572266	16400.064453
1138.451172	16301.172852
1137.330078	16197.857422
1136.208984	16230.577148
1135.086914	16269.971680
1133.965820	15975.050781
1132.843750	16132.573242
1131.721680	16089.531250
1130.599609	16271.476562
1129.476562	16268.509766
1128.353516	16149.758789
1127.230469	16238.089844
1126.107422	16259.613281
1124.984375	16298.930664
1123.860352	16149.107422
1122.737305	16097.221680
1121.613281	16172.132812
1120.488281	15860.076172
1119.364258	16028.383789
1118.239258	16174.399414
1117.115234	16102.548828
1115.990234	16032.946289
1114.864258	16036.686523
1113.739258	16055.973633
1112.613281	15995.298828
1111.487305	15852.486328
1110.361328	16053.845703
1109.235352	15979.884766
1108.108398	16161.172852
1106.982422	16122.719727
1105.855469	15988.883789
1104.728516	15839.569336
1103.600586	16042.925781
1102.473633	16215.164062
1101.345703	16212.203125
1100.217773	16118.366211
1099.089844	16175.257812
1097.960938	16077.029297
1096.833008	16016.496094
1095.704102	16049.008789
1094.575195	16119.155273
1093.446289	15792.957031
1092.316406	16024.720703
1091.187500	15714.150391
1090.057617	15702.427734
1088.927734	15825.668945
1087.796875	15897.987305
1086.666992	15769.018555
1085.536133	15839.107422
1084.405273	15957.809570
1083.274414	15857.633789
1082.143555	15936.506836
1081.011719	15721.470703
1079.879883	16038.933594
1078.748047	15779.779297
1077.616211	15783.519531
1076.484375	15769.593750
1075.351562	15888.128906
1074.218750	15635.810547
1073.085938	15732.256836
1071.953125	15740.412109
1070.820312	15618.410156
1069.686523	15670.693359
1068.552734	15694.290039
1067.418945	15559.132812
1066.284180	15642.256836
1065.150391	15709.922852
1064.015625	15795.191406
1062.880859	15812.130859
1061.746094	15826.859375
1060.611328	15755.690430
1059.475586	15396.090820
1058.339844	15644.250000
1057.204102	15815.278320
1056.068359	15878.406250
1054.932617	15626.861328
1053.795898	15738.398438
1052.659180	15572.750977
1051.522461	15717.242188
1050.385742	15690.179688
1049.248047	15614.761719
1048.110352	15713.007812
1046.972656	15558.500977
1045.834961	15551.257812
1044.697266	15460.541016
1043.558594	15655.378906
1042.419922	15604.201172
1041.281250	15506.935547
1040.142578	15567.753906
1039.003906	15488.086914
1037.864258	15494.027344
1036.724609	15535.066406
1035.584961	15365.513672
1034.445312	15551.305664
1033.304688	15761.148438
1032.165039	15435.992188
1031.024414	15571.252930
1029.883789	15592.505859
1028.742188	15394.640625
1027.601562	15363.339844
1026.459961	15452.515625
1025.318359	15167.187500
1024.176758	15396.493164
1023.034180	15166.004883
1021.892578	15329.564453
1020.750000	15296.117188
1019.607422	15433.337891
1018.463867	15266.446289
1017.321289	15379.561523
1016.177734	15370.180664
1015.034180	15415.459961
1013.890625	15333.941406
1012.747070	15274.305664
1011.602539	15295.540039
1010.458008	14903.861328
1009.313477	15337.982422
1008.168945	15188.848633
1007.024414	15098.722656
1005.878906	15054.473633
1004.733398	15304.900391
1003.587891	15086.046875
1002.442383	15229.463867
1001.295898	15211.398438
1000.149414	15151.898438
999.002930	15362.822266
997.856445	15370.903320
996.709961	15045.460938
995.562500	15033.980469
994.415039	15157.606445
993.267578	15089.462891
992.120117	15311.053711
990.972656	15075.209961
989.824219	15039.779297
988.675781	15235.129883
987.527344	14884.064453
986.378906	15051.080078
985.229492	15137.525391
984.080078	15315.308594
982.930664	15240.717773
981.781250	15113.960938
980.631836	14972.030273
979.481445	15088.842773
978.331055	14988.263672
977.180664	15215.854492
976.030273	15143.532227
974.879883	14962.623047
973.728516	15107.559570
972.577148	15124.326172
971.425781	14719.896484
970.273438	14821.382812
969.122070	14892.447266
967.969727	14950.465820
966.817383	15014.970703
965.665039	15094.634766
964.511719	15002.942383
963.359375	14852.740234
962.206055	14958.402344
961.052734	14996.833984
959.898438	15115.431641
958.745117	14902.482422
957.590820	14843.416992
956.436523	15065.939453
955.282227	14734.012695
954.127930	14813.575195
952.972656	14949.389648
951.817383	14745.358398
950.662109	14902.773438
949.506836	14649.064453
948.350586	15141.718750
947.195312	14901.034180
946.039062	14686.385742
944.882812	14891.224609
943.725586	14776.084961
942.569336	14635.053711
941.412109	14794.412109
940.254883	14802.489258
939.097656	14814.882812
937.939453	14637.233398
936.782227	14759.767578
935.624023	14798.064453
934.465820	14773.755859
933.306641	14492.661133
932.148438	14638.861328
930.989258	14927.377930
929.830078	14780.125977
928.670898	14585.488281
927.510742	14755.276367
926.351562	14806.446289
925.191406	14769.235352
924.031250	14796.679688
922.871094	14623.758789
921.709961	14741.684570
920.548828	14594.678711
919.387695	14456.339844
918.226562	14632.353516
917.065430	14623.199219
915.903320	14575.311523
914.741211	14561.866211
913.579102	14451.622070
912.416992	14504.877930
911.254883	14371.029297
910.091797	14516.727539
908.928711	14563.491211
907.765625	14492.030273
906.601562	14558.119141
905.438477	14499.575195
904.274414	14496.899414
903.110352	14453.420898
901.946289	14532.347656
900.781250	14452.380859
899.617188	14462.592773
898.452148	14509.282227
897.287109	14467.983398
896.121094	14405.246094
894.956055	14372.559570
893.790039	14337.740234
892.624023	14283.636719
891.458008	14351.740234
890.291016	14383.381836
889.125000	14179.297852
887.958008	14245.238281
886.791016	14398.979492
885.623047	14150.027344
884.456055	14226.641602
883.288086	14251.845703
882.120117	14360.518555
880.952148	14205.919922
879.783203	14278.184570
878.615234	14530.124023
877.446289	14287.881836
876.277344	14171.901367
875.107422	14261.221680
873.938477	14151.700195
872.768555	14093.514648
871.598633	14351.616211
870.428711	14156.674805
869.257812	14117.744141
868.087891	14125.813477
866.916992	14238.511719
865.746094	14141.941406
864.575195	14288.746094
863.403320	14115.371094
862.231445	14106.359375
861.059570	14182.686523
859.887695	14214.191406
858.715820	14192.369141
857.542969	14285.693359
856.370117	14327.819336
855.197266	14297.460938
854.024414	14303.339844
852.850586	14157.942383
851.676758	14055.203125
850.503906	14227.249023
849.329102	14018.061523
848.155273	14262.435547
846.980469	14100.148438
845.805664	14078.384766
844.630859	14214.089844
843.456055	14217.841797
842.280273	14151.398438
841.105469	14121.131836
839.929688	14148.286133
838.753906	14156.295898
837.577148	14196.185547
836.400391	14153.179688
835.224609	14035.825195
834.046875	14347.625000
832.870117	14321.604492
831.693359	13970.693359
830.515625	14019.061523
829.337891	14387.944336
828.160156	14291.896484
826.981445	14181.029297
825.803711	14212.346680
824.625000	14124.867188
823.446289	14302.516602
822.266602	14176.883789
821.087891	14080.977539
819.908203	13910.919922
818.728516	14069.401367
817.548828	14206.635742
816.368164	14100.200195
815.188477	14180.189453
814.007812	14317.325195
812.827148	14109.297852
811.645508	14165.954102
810.464844	14269.150391
809.283203	13875.033203
808.101562	14234.240234
806.919922	14309.866211
805.737305	14125.332031
804.554688	13962.010742
803.373047	13965.763672
802.189453	14299.252930
801.006836	13983.829102
799.823242	14169.286133
798.640625	14141.306641
797.457031	14210.496094
796.272461	14205.748047
795.088867	13966.639648
793.904297	14109.704102
792.719727	14024.773438
791.535156	13952.535156
790.350586	14021.677734
789.165039	13964.231445
787.979492	14079.743164
786.793945	13950.613281
785.608398	13931.157227
784.421875	13882.198242
783.236328	13677.306641
782.049805	13997.145508
780.862305	13823.907227
779.675781	13892.953125
778.488281	13757.703125
777.300781	13786.729492
776.113281	13761.012695
774.925781	13863.692383
773.737305	13938.976562
772.549805	13848.022461
771.361328	13942.211914
770.171875	13710.378906
768.983398	13871.845703
767.793945	13724.206055
766.604492	13841.467773
765.415039	13769.542969
764.225586	13794.299805
763.035156	13970.303711
761.845703	13944.602539
760.655273	13818.109375
759.463867	13647.570312
758.273438	13743.697266
757.082031	13625.705078
755.890625	13788.949219
754.699219	13790.582031
753.507812	13767.040039
752.315430	13728.826172
751.123047	13690.625977
749.930664	13753.071289
748.738281	13735.839844
747.544922	13907.230469
746.351562	13795.685547
745.158203	13757.504883
743.964844	13606.231445
742.771484	13616.264648
741.577148	13833.578125
740.382812	13831.003906
739.188477	13738.430664
737.994141	13756.799805
736.798828	13498.989258
735.603516	13797.699219
734.408203	13711.473633
733.212891	13596.003906
732.016602	13570.475586
730.821289	13586.761719
729.625000	13667.827148
728.428711	13391.558594
727.231445	13746.301758
726.035156	13524.426758
724.837891	13494.759766
723.640625	13607.083008
722.442383	13750.676758
721.245117	13791.945312
720.046875	13685.038086
718.848633	13436.294922
717.650391	13609.014648
716.451172	13819.210938
715.252930	13587.262695
714.053711	13628.511719
712.854492	13563.438477
711.654297	13615.096680
710.455078	13558.383789
709.254883	13595.438477
708.054688	13753.286133
706.853516	13496.658203
705.653320	13577.425781
704.452148	13601.957031
703.250977	13526.574219
702.049805	13607.290039
700.847656	13556.899414
699.646484	13656.299805
698.444336	13568.481445
697.242188	13642.888672
696.039062	13821.216797
694.836914	13567.125977
693.633789	13410.806641
692.430664	13553.752930
691.227539	13571.999023
690.023438	13498.846680
688.819336	13608.467773
687.615234	13572.708008
686.411133	13696.805664
685.207031	13482.546875
684.001953	13529.833008
682.796875	13519.008789
681.591797	13514.411133
680.386719	13628.030273
679.180664	13548.763672
677.974609	13508.916016
676.768555	13506.393555
675.562500	13624.072266
674.356445	13586.303711
673.149414	13461.539062
671.942383	13382.388672
670.735352	13520.708008
669.527344	13615.496094
668.320312	13420.433594
667.112305	13318.580078
665.904297	13440.250977
664.695312	13429.464844
663.487305	13683.455078
662.278320	13554.740234
661.069336	13581.156250
659.860352	13861.850586
658.650391	13431.390625
657.440430	13528.078125
656.230469	13523.482422
655.020508	13576.732422
653.810547	13481.249023
652.599609	13394.060547
651.388672	13484.466797
650.177734	13484.010742
648.966797	13405.124023
647.754883	13338.647461
646.542969	13410.426758
645.331055	13333.659180
644.119141	13339.415039
642.906250	13429.708984
641.694336	13381.841797
640.481445	13276.277344
639.267578	13341.800781
638.054688	13242.463867
636.840820	13328.568359
635.626953	13437.296875
634.413086	13158.837891
633.199219	13236.672852
631.984375	13501.801758
630.769531	13314.042969
629.554688	13268.338867
628.339844	13263.797852
627.124023	13220.174805
625.909180	13287.624023
624.693359	13207.000000
623.476562	13235.365234
622.260742	13187.666992
621.043945	13361.931641
619.827148	13552.567383
618.610352	13545.920898
617.393555	13551.599609
616.175781	13524.418945
614.958008	13575.266602
613.740234	13685.624023
612.522461	13559.918945
611.303711	13547.118164
610.084961	13643.055664
608.866211	13394.355469
607.647461	13309.812500
606.427734	13340.125000
605.208984	13319.173828
603.989258	13454.005859
602.768555	13170.731445
601.548828	13246.121094
600.328125	13227.250000
599.107422	13177.663086
597.886719	13359.489258
596.666016	13031.454102
595.444336	12996.258789
594.222656	13069.544922
593.000977	13099.833008
591.779297	12960.306641
590.556641	13135.829102
589.334961	12926.813477
588.112305	13179.973633
586.888672	13067.109375
585.666016	13117.798828
584.442383	12917.116211
583.218750	12978.029297
581.995117	12987.850586
580.770508	12987.456055
579.546875	12985.018555
578.322266	12835.584961
577.097656	12986.267578
575.872070	12861.379883
574.647461	12787.549805
573.421875	12913.673828
572.196289	12966.320312
570.969727	13100.519531
569.744141	12875.816406
568.517578	12873.398438
567.291016	12817.989258
566.064453	12899.130859
564.836914	12847.810547
563.609375	12849.471680
562.381836	13001.840820
561.154297	12663.417969
559.926758	13117.072266
558.698242	12927.343750
557.469727	12874.037109
556.241211	12759.708984
555.012695	12964.813477
553.783203	12750.845703
552.553711	12892.833008
551.324219	12859.911133
550.094727	12757.886719
548.864258	13096.935547
547.633789	12765.283203
546.403320	12736.471680
545.172852	12782.827148
543.941406	12745.898438
542.710938	12735.379883
541.479492	12850.732422
540.247070	12730.589844
539.015625	12671.373047
537.783203	12762.323242
536.550781	12731.522461
535.318359	12767.664062
534.085938	12534.087891
532.852539	12612.828125
531.619141	12928.706055
530.385742	12567.547852
529.152344	12546.946289
527.917969	12589.156250
526.683594	12485.508789
525.449219	12673.525391
524.214844	12436.263672
522.979492	12581.705078
521.744141	12526.711914
520.508789	12477.809570
519.273438	12633.274414
518.037109	12543.912109
516.801758	12474.807617
515.565430	12581.653320
514.328125	12690.479492
513.091797	12576.914062
511.854492	12392.657227
510.617188	12467.105469
509.379883	12594.051758
508.142578	12589.659180
506.904297	12577.190430
505.666016	12552.610352
504.427734	12550.245117
503.189453	12568.063477
501.950195	12785.650391
500.710938	12757.012695
499.471680	12575.079102
498.232422	12490.020508
496.992188	12479.600586
495.751953	12646.594727
494.511719	12622.039062
493.271484	12422.162109
492.030273	12560.862305
490.790039	12487.986328
489.548828	12471.532227
488.306641	12320.162109
487.065430	12434.615234
485.823242	12255.125977
484.581055	12506.404297
483.338867	12425.567383
482.095703	12473.520508
480.853516	12537.545898
479.610352	12293.848633
478.367188	12480.536133
477.123047	12427.922852
475.879883	12317.040039
474.635742	12535.769531
473.391602	12410.841797
472.146484	12410.508789
470.902344	12454.360352
469.657227	12486.146484
468.412109	12289.043945
467.166016	12314.826172
465.920898	12316.514648
464.674805	12322.214844
463.428711	12313.870117
462.182617	12165.122070
460.935547	12198.921875
459.688477	12357.020508
458.441406	12246.434570
457.194336	12218.066406
455.946289	12165.661133
454.699219	12247.509766
453.451172	12143.036133
452.202148	12322.993164
450.954102	12278.614258
449.705078	12464.482422
448.456055	12085.821289
447.207031	12145.576172
445.958008	12219.313477
444.708008	12014.954102
443.458008	12026.683594
442.208008	12056.406250
440.957031	12034.132812
439.707031	12297.722656
438.456055	12235.438477
437.205078	12063.276367
435.953125	11991.070312
434.702148	12276.438477
433.450195	12064.421875
432.198242	12181.942383
430.945312	11926.103516
429.693359	11895.904297
428.440430	12262.835938
427.187500	12132.823242
425.934570	12118.558594
424.680664	12054.437500
423.426758	12173.794922
422.172852	12002.027344
420.918945	12298.752930
419.664062	12467.818359
418.410156	12320.000977
417.155273	12504.934570
415.899414	12966.658203
414.644531	12840.734375
413.388672	12907.990234
412.132812	12949.340820
410.876953	12865.287109
409.620117	12604.161133
408.364258	12546.066406
407.107422	12551.647461
405.849609	12195.265625
404.592773	12228.747070
403.334961	11900.392578
402.077148	11955.780273
400.819336	11983.324219
399.561523	11945.289062
398.302734	11873.497070
397.043945	11998.361328
395.785156	11867.011719
394.525391	11932.266602
393.266602	11862.513672
392.006836	11784.848633
390.747070	11873.891602
389.486328	11730.784180
388.226562	11661.120117
386.965820	11648.994141
385.705078	11710.233398
384.443359	11670.347656
383.182617	11691.918945
381.920898	11701.591797
380.659180	11851.929688
379.396484	11883.356445
378.134766	11803.862305
376.872070	11684.795898
375.609375	11815.222656
374.346680	11587.331055
373.083008	11751.370117
371.819336	11527.532227
370.555664	11555.019531
369.291992	11503.378906
368.027344	11433.960938
366.762695	11639.389648
365.498047	11502.760742
364.233398	11549.987305
362.968750	11614.978516
361.703125	11604.871094
360.437500	11359.710938
359.170898	11507.645508
357.905273	11515.333008
356.638672	11416.413086
355.372070	11473.458008
354.105469	11487.066406
352.837891	11429.639648
351.571289	11437.332031
350.303711	11326.685547
349.035156	11482.284180
347.767578	11324.353516
346.499023	11257.154297
345.230469	11235.307617
343.961914	11185.883789
342.692383	11327.569336
341.423828	11299.810547
340.154297	11311.448242
338.883789	11366.395508
337.614258	11202.817383
336.343750	11289.253906
335.073242	11344.172852
333.802734	11286.928711
332.532227	11156.926758
331.260742	11276.737305
329.989258	11097.627930
328.717773	11117.142578
327.445312	11293.890625
326.173828	11220.997070
324.901367	11222.791992
323.627930	11283.518555
322.355469	11120.321289
321.082031	11263.516602
319.808594	11070.935547
318.535156	11127.715820
317.261719	11327.739258
315.987305	11251.021484
314.712891	11241.033203
313.438477	11385.999023
312.164062	11317.157227
310.888672	11185.598633
309.613281	11610.812500
308.337891	11583.123047
307.061523	11708.289062
305.786133	11702.140625
304.509766	11966.309570
303.233398	12202.958984
301.956055	12325.950195
300.678711	12441.063477
299.402344	12912.362305
298.124023	12512.645508
296.846680	12964.183594
295.568359	13354.908203
294.290039	13571.415039
293.011719	13586.428711
291.733398	13071.611328
290.454102	12664.497070
289.174805	12218.451172
287.895508	11598.672852
286.616211	11619.905273
285.335938	11410.650391
284.055664	11217.097656
282.775391	11146.623047
281.494141	10953.192383
280.213867	10960.862305
278.932617	10673.875977
277.651367	10845.477539
276.369141	10665.904297
275.087891	10921.300781
273.805664	10562.393555
272.523438	10755.327148
271.240234	10714.292969
269.958008	10686.916016
268.674805	10564.078125
267.390625	10739.330078
266.107422	10606.790039
264.823242	10571.663086
263.539062	10626.105469
262.254883	10509.232422
260.970703	10736.872070
259.685547	10549.974609
258.400391	10582.977539
257.115234	10641.252930
255.830078	10580.881836
254.543945	10573.029297
253.257812	10600.168945
251.971680	10576.765625
250.684570	10631.098633
249.398438	10699.008789
248.111328	10617.326172
246.824219	10922.143555
245.536133	10638.512695
244.248047	10638.421875
242.960938	10405.416016
241.671875	10550.912109
240.383789	10502.331055
239.094727	10424.670898
237.805664	10490.560547
236.516602	10372.209961
235.227539	10628.078125
233.937500	10529.128906
232.647461	10924.402344
231.357422	11092.824219
230.066406	11425.845703
228.775391	12194.536133
227.485352	12422.648438
226.193359	12429.953125
224.902344	11647.465820
223.610352	10929.144531
222.318359	10743.227539
221.026367	10265.249023
219.733398	10120.148438
218.441406	10280.661133
217.148438	10122.078125
215.854492	10004.151367
214.561523	10224.508789
213.267578	9923.026367
211.973633	9907.602539
210.679688	10141.373047
209.384766	10104.668945
208.090820	9977.222656
206.795898	9842.103516
205.500000	9913.567383
204.205078	9747.632812
202.909180	9772.779297
201.613281	9745.830078
200.317383	9765.180664
199.020508	9720.886719
197.723633	9543.577148
196.426758	9657.407227
195.129883	9753.847656
193.832031	9663.342773
192.534180	9674.977539
191.236328	9611.487305
189.938477	9484.470703
188.639648	9503.833008
187.341797	9630.989258
186.042969	9415.505859
184.743164	9533.007812
183.444336	9588.899414
182.144531	9583.214844
180.844727	9546.759766
179.543945	9483.399414
178.244141	9320.094727
176.943359	9577.791016
175.642578	9222.357422
174.340820	9397.353516
173.040039	9416.682617
171.738281	9370.703125
170.435547	9418.833008
169.133789	9395.907227
167.831055	9321.164062
166.528320	9392.303711
165.225586	9520.978516
163.922852	9423.231445
162.619141	9229.620117
161.315430	9294.967773
160.011719	9469.576172
158.708008	9195.553711
157.403320	9391.196289
156.098633	9190.108398
154.793945	9127.038086
153.488281	9063.991211
152.182617	9018.204102
150.876953	9158.163086
149.571289	9026.228516
148.265625	9106.796875
146.958984	9152.889648
145.652344	8944.500000
144.345703	8896.872070
143.038086	9092.154297
141.730469	8897.280273
140.422852	9010.278320
139.115234	8955.028320
137.806641	8909.353516
136.498047	8936.301758
135.189453	8774.118164
133.880859	8701.763672
132.571289	8673.357422
131.262695	8583.866211
129.952148	8473.412109
128.642578	8290.477539
127.332031	8214.466797
126.021484	8167.101562
124.710938	7936.645020
123.400391	7862.652344
122.088867	7777.248047
120.777344	7459.308594
119.465820	7036.665527
