#Wave		#Intensity
1999.057617	225123.671875
1998.089844	225263.171875
1997.122070	225508.031250
1996.154297	226008.453125
1995.186523	226405.406250
1994.217773	226644.750000
1993.249023	226499.421875
1992.280273	225765.750000
1991.311523	225509.656250
1990.341797	225908.890625
1989.373047	225825.656250
1988.403320	226237.578125
1987.433594	226579.734375
1986.463867	225857.078125
1985.494141	226681.140625
1984.524414	226489.562500
1983.553711	225880.640625
1982.583008	226915.500000
1981.613281	226335.031250
1980.641602	226717.890625
1979.670898	226907.500000
1978.700195	227511.500000
1977.728516	227569.609375
1976.756836	227123.312500
1975.785156	227711.484375
1974.813477	227707.781250
1973.841797	227387.687500
1972.869141	226951.984375
1971.897461	227480.609375
1970.924805	227371.500000
1969.952148	228051.500000
1968.979492	227685.328125
1968.005859	227820.312500
1967.033203	227418.328125
1966.059570	228108.078125
1965.085938	227893.625000
1964.112305	228364.796875
1963.138672	228134.968750
1962.165039	227930.859375
1961.190430	228340.156250
1960.215820	228159.171875
1959.242188	228014.156250
1958.266602	227920.468750
1957.291992	228424.343750
1956.317383	227394.734375
1955.341797	227660.093750
1954.366211	228576.359375
1953.390625	228395.500000
1952.415039	228499.078125
1951.439453	228354.140625
1950.463867	229080.078125
1949.487305	228266.671875
1948.510742	228531.484375
1947.534180	228209.953125
1946.557617	228305.734375
1945.580078	229332.984375
1944.603516	228742.812500
1943.625977	229112.140625
1942.648438	229309.968750
1941.670898	228295.562500
1940.693359	229030.390625
1939.715820	227681.484375
1938.737305	228901.765625
1937.758789	229089.203125
1936.780273	229542.281250
1935.801758	228710.218750
1934.823242	229204.046875
1933.844727	228967.343750
1932.865234	229785.203125
1931.885742	229249.781250
1930.906250	229125.468750
1929.926758	227658.859375
1928.947266	228249.265625
1927.966797	229084.359375
1926.986328	229243.234375
1926.006836	228670.156250
1925.026367	228816.281250
1924.044922	228684.484375
1923.064453	228491.546875
1922.083008	228601.937500
1921.102539	228972.156250
1920.121094	228134.734375
1919.139648	229643.406250
1918.157227	229284.906250
1917.175781	228384.187500
1916.193359	229372.687500
1915.211914	229711.781250
1914.229492	229918.421875
1913.246094	228883.343750
1912.263672	228988.281250
1911.281250	228749.812500
1910.297852	229734.609375
1909.314453	229338.421875
1908.331055	230302.421875
1907.347656	230025.718750
1906.363281	229500.062500
1905.379883	229294.734375
1904.395508	229955.718750
1903.411133	229064.578125
1902.426758	229118.421875
1901.442383	229240.796875
1900.458008	228779.250000
1899.472656	229135.125000
1898.487305	228917.359375
1897.501953	230138.265625
1896.516602	229260.812500
1895.531250	229847.125000
1894.544922	229571.015625
1893.559570	229444.593750
1892.573242	228697.125000
1891.586914	229541.609375
1890.599609	228870.390625
1889.613281	229311.687500
1888.625977	229127.109375
1887.639648	229360.500000
1886.652344	228580.843750
1885.665039	228710.421875
1884.676758	228963.984375
1883.689453	228977.000000
1882.701172	228486.421875
1881.713867	229243.359375
1880.725586	228950.203125
1879.736328	230050.750000
1878.748047	229651.328125
1877.759766	229833.546875
1876.770508	229477.265625
1875.781250	229340.968750
1874.791992	228916.640625
1873.802734	229796.171875
1872.812500	229382.000000
1871.823242	229546.359375
1870.833008	230066.703125
1869.842773	229801.640625
1868.852539	230160.171875
1867.862305	229201.078125
1866.871094	230018.859375
1865.880859	229403.250000
1864.889648	228861.000000
1863.898438	229325.281250
1862.907227	229527.125000
1861.915039	230407.109375
1860.923828	229781.843750
1859.931641	230051.515625
1858.939453	230880.531250
1857.947266	229575.203125
1856.955078	230235.218750
1855.961914	230099.093750
1854.969727	229960.484375
1853.976562	230282.671875
1852.983398	230728.078125
1851.990234	229688.375000
1850.997070	231112.609375
1850.002930	230392.703125
1849.008789	231051.562500
1848.014648	229635.234375
1847.020508	230711.421875
1846.026367	230042.343750
1845.032227	231412.156250
1844.037109	230559.718750
1843.042969	230137.250000
1842.047852	230878.203125
1841.051758	230234.765625
1840.056641	231045.734375
1839.061523	230178.984375
1838.065430	231720.265625
1837.069336	230816.031250
1836.073242	231405.421875
1835.077148	231020.984375
1834.081055	231043.109375
1833.083984	231516.734375
1832.086914	231468.531250
1831.090820	231688.625000
1830.092773	231214.171875
1829.095703	231379.078125
1828.098633	230817.093750
1827.100586	231673.609375
1826.102539	232314.343750
1825.104492	232075.609375
1824.106445	231568.968750
1823.108398	231868.796875
1822.109375	232521.531250
1821.111328	231827.312500
1820.112305	231766.515625
1819.113281	230722.328125
1818.113281	232383.015625
1817.114258	231674.265625
1816.114258	231385.921875
1815.115234	231755.312500
1814.115234	232159.562500
1813.115234	231611.281250
1812.114258	231040.703125
1811.114258	231949.593750
1810.113281	231526.531250
1809.112305	231845.484375
1808.111328	231929.562500
1807.110352	231723.937500
1806.109375	231585.796875
1805.107422	232438.656250
1804.105469	232183.109375
1803.103516	231341.265625
1802.101562	232707.625000
1801.099609	231786.140625
1800.096680	231904.953125
1799.094727	232587.250000
1798.091797	231736.046875
1797.088867	232732.187500
1796.085938	232187.781250
1795.082031	232234.109375
1794.079102	232524.562500
1793.075195	231494.734375
1792.071289	231222.343750
1791.067383	231286.203125
1790.063477	231750.843750
1789.058594	231739.890625
1788.053711	230788.218750
1787.049805	231292.484375
1786.044922	231139.781250
1785.039062	231892.531250
1784.034180	231123.015625
1783.028320	231756.125000
1782.023438	231364.750000
1781.017578	231423.406250
1780.011719	231839.906250
1779.004883	230703.265625
1777.999023	231318.468750
1776.992188	231352.218750
1775.985352	231005.968750
1774.978516	230421.484375
1773.971680	231584.906250
1772.964844	229900.906250
1771.957031	230599.921875
1770.950195	231484.765625
1769.942383	231061.906250
1768.934570	230252.250000
1767.925781	231101.953125
1766.917969	231135.578125
1765.909180	230713.046875
1764.900391	230493.890625
1763.891602	230272.328125
1762.882812	229914.562500
1761.874023	230505.734375
1760.864258	230752.375000
1759.854492	229820.156250
1758.844727	230547.171875
1757.834961	230402.531250
1756.825195	229693.593750
1755.815430	230694.906250
1754.804688	229768.421875
1753.793945	230103.890625
1752.783203	229323.750000
1751.772461	229389.609375
1750.760742	229554.343750
1749.750000	230633.671875
1748.738281	228840.578125
1747.726562	229104.140625
1746.714844	229604.796875
1745.703125	229705.078125
1744.690430	229555.843750
1743.678711	229865.968750
1742.666016	229311.828125
1741.653320	229510.796875
1740.640625	229778.781250
1739.626953	230024.468750
1738.614258	229399.093750
1737.600586	229511.531250
1736.586914	229323.000000
1735.573242	230325.609375
1734.558594	230282.453125
1733.544922	230047.031250
1732.530273	229747.609375
1731.515625	230298.421875
1730.500977	229289.468750
1729.486328	230315.593750
1728.471680	228967.093750
1727.456055	229251.671875
1726.440430	229565.703125
1725.424805	229045.125000
1724.409180	228992.328125
1723.393555	229407.093750
1722.376953	229334.562500
1721.360352	228870.937500
1720.344727	228680.453125
1719.328125	229446.578125
1718.310547	228980.687500
1717.293945	229817.750000
1716.276367	229519.062500
1715.258789	228259.671875
1714.241211	229914.531250
1713.223633	230198.109375
1712.206055	228701.015625
1711.187500	229925.171875
1710.169922	229528.515625
1709.151367	229870.843750
1708.132812	229822.828125
1707.113281	229495.078125
1706.094727	229530.531250
1705.075195	229001.796875
1704.055664	230148.281250
1703.036133	229367.046875
1702.016602	229319.109375
1700.997070	230060.453125
1699.976562	229733.015625
1698.956055	229025.875000
1697.935547	230661.062500
1696.915039	230012.781250
1695.894531	229910.843750
1694.873047	229402.468750
1693.852539	229814.765625
1692.831055	228981.031250
1691.809570	229777.453125
1690.788086	229641.359375
1689.765625	229652.078125
1688.743164	229792.406250
1687.721680	229428.906250
1686.699219	229855.296875
1685.676758	230049.281250
1684.653320	229932.781250
1683.630859	229679.437500
1682.607422	229758.484375
1681.583984	229634.734375
1680.560547	229264.312500
1679.537109	229626.656250
1678.512695	230294.046875
1677.488281	229098.546875
1676.464844	229726.734375
1675.440430	229654.312500
1674.415039	228322.906250
1673.390625	229670.515625
1672.365234	228573.703125
1671.340820	228964.828125
1670.315430	228209.859375
1669.290039	228849.546875
1668.263672	228886.984375
1667.238281	228985.312500
1666.211914	228820.468750
1665.185547	228163.593750
1664.159180	228320.421875
1663.132812	228031.562500
1662.105469	228509.718750
1661.079102	228542.234375
1660.051758	227608.484375
1659.024414	228183.781250
1657.997070	228520.421875
1656.968750	228431.250000
1655.941406	227371.671875
1654.913086	227501.562500
1653.884766	227624.093750
1652.856445	227758.750000
1651.828125	227103.437500
1650.798828	227459.250000
1649.769531	227469.906250
1648.740234	227978.531250
1647.710938	227816.656250
1646.681641	226469.812500
1645.652344	227318.218750
1644.622070	227044.843750
1643.591797	227113.765625
1642.561523	226656.093750
1641.531250	226045.734375
1640.500977	226575.640625
1639.469727	226518.437500
1638.438477	226201.796875
1637.408203	226188.312500
1636.375977	225680.328125
1635.344727	226020.765625
1634.313477	225379.703125
1633.281250	224857.562500
1632.249023	225505.546875
1631.216797	225656.828125
1630.184570	225624.015625
1629.151367	225351.531250
1628.119141	224938.750000
1627.085938	225220.671875
1626.052734	224229.734375
1625.019531	224410.046875
1623.985352	224544.343750
1622.952148	225532.250000
1621.917969	224464.562500
1620.883789	225145.093750
1619.849609	224353.375000
1618.815430	224267.593750
1617.780273	224582.921875
1616.745117	224277.265625
1615.709961	224969.265625
1614.674805	224731.250000
1613.639648	223450.250000
1612.604492	223323.625000
1611.568359	223696.671875
1610.532227	223849.953125
1609.496094	223281.750000
1608.459961	223594.265625
1607.423828	223966.953125
1606.386719	223565.390625
1605.349609	222843.312500
1604.312500	223471.421875
1603.275391	223299.125000
1602.238281	222584.671875
1601.200195	222730.593750
1600.163086	222915.015625
1599.125000	222978.921875
1598.086914	223394.390625
1597.047852	223152.406250
1596.009766	222087.234375
1594.970703	222396.703125
1593.931641	223557.906250
1592.892578	223188.500000
1591.853516	222265.968750
1590.814453	222411.609375
1589.774414	222013.734375
1588.734375	222758.000000
1587.694336	222155.859375
1586.654297	223229.078125
1585.614258	222132.046875
1584.573242	223015.062500
1583.532227	222720.750000
1582.492188	222930.859375
1581.450195	223013.640625
1580.409180	222582.593750
1579.368164	222850.203125
1578.326172	223153.718750
1577.284180	223113.984375
1576.242188	222877.515625
1575.200195	222214.171875
1574.157227	222807.718750
1573.115234	223012.609375
1572.072266	222565.343750
1571.029297	222674.296875
1569.985352	221704.781250
1568.942383	221756.328125
1567.898438	222660.718750
1566.855469	222458.171875
1565.811523	222571.796875
1564.767578	221940.718750
1563.722656	222078.312500
1562.678711	223005.734375
1561.633789	223190.937500
1560.588867	222627.156250
1559.543945	221941.562500
1558.499023	222516.703125
1557.453125	221953.312500
1556.407227	222128.937500
1555.361328	222689.359375
1554.315430	221846.578125
1553.269531	221759.218750
1552.223633	222699.281250
1551.176758	221649.093750
1550.129883	221874.671875
1549.083008	222415.390625
1548.036133	222120.250000
1546.989258	222507.921875
1545.941406	222220.015625
1544.893555	222049.140625
1543.845703	221797.187500
1542.797852	221907.890625
1541.750000	222435.937500
1540.701172	221659.406250
1539.652344	221944.109375
1538.603516	221737.640625
1537.554688	221686.156250
1536.505859	222652.171875
1535.456055	222128.796875
1534.407227	222465.515625
1533.357422	221604.140625
1532.307617	221676.500000
1531.256836	222372.593750
1530.207031	221678.296875
1529.156250	221467.375000
1528.105469	221837.093750
1527.054688	221167.046875
1526.003906	221681.765625
1524.953125	221359.171875
1523.901367	220596.796875
1522.849609	222195.406250
1521.797852	220334.984375
1520.746094	220573.687500
1519.694336	221401.562500
1518.641602	221217.093750
1517.588867	220113.468750
1516.536133	220779.468750
1515.483398	220153.546875
1514.430664	220615.125000
1513.376953	220032.171875
1512.323242	220232.531250
1511.269531	219564.406250
1510.215820	220668.609375
1509.162109	220410.968750
1508.107422	219916.250000
1507.053711	220090.343750
1505.999023	219204.703125
1504.944336	220516.500000
1503.888672	219086.062500
1502.833984	219117.968750
1501.778320	219299.093750
1500.722656	218928.312500
1499.666992	219545.109375
1498.611328	219072.578125
1497.555664	218491.312500
1496.499023	218662.890625
1495.442383	218858.046875
1494.385742	218743.187500
1493.329102	218238.062500
1492.271484	218411.890625
1491.214844	218129.250000
1490.157227	218546.531250
1489.099609	218393.968750
1488.041992	218439.968750
1486.983398	217493.515625
1485.925781	217976.718750
1484.867188	217784.171875
1483.808594	216956.406250
1482.750000	217729.843750
1481.691406	217594.093750
1480.631836	216995.718750
1479.572266	217148.046875
1478.512695	216667.937500
1477.453125	216942.906250
1476.393555	217618.765625
1475.333008	216469.046875
1474.273438	216833.484375
1473.212891	216210.015625
1472.152344	216404.640625
1471.090820	216469.578125
1470.030273	215714.531250
1468.968750	215525.125000
1467.907227	215554.843750
1466.845703	215928.343750
1465.784180	216574.828125
1464.721680	215431.968750
1463.660156	216132.421875
1462.597656	216154.890625
1461.535156	216073.812500
1460.472656	215279.968750
1459.409180	214665.171875
1458.345703	214659.625000
1457.283203	215018.500000
1456.219727	214885.937500
1455.155273	215486.703125
1454.091797	214691.421875
1453.027344	213941.062500
1451.963867	214609.765625
1450.899414	214071.046875
1449.833984	214208.781250
1448.769531	213879.250000
1447.704102	214284.546875
1446.639648	214030.218750
1445.574219	214449.406250
1444.507812	214237.343750
1443.442383	214128.546875
1442.375977	214080.765625
1441.310547	213861.828125
1440.244141	213884.421875
1439.177734	213557.750000
1438.110352	214140.484375
1437.043945	213211.671875
1435.976562	213759.109375
1434.909180	213404.546875
1433.841797	213478.656250
1432.773438	213192.171875
1431.706055	213259.250000
1430.637695	213735.921875
1429.569336	212918.281250
1428.500977	211459.828125
1427.432617	211398.468750
1426.363281	211875.093750
1425.294922	213001.640625
1424.225586	212818.453125
1423.156250	211919.984375
1422.085938	212043.203125
1421.016602	211794.812500
1419.946289	211875.953125
1418.875977	212375.187500
1417.805664	211582.656250
1416.735352	212378.312500
1415.664062	211875.562500
1414.593750	211744.125000
1413.522461	211171.640625
1412.451172	211621.406250
1411.379883	210960.453125
1410.307617	210850.250000
1409.235352	211691.625000
1408.164062	212374.125000
1407.090820	211345.125000
1406.018555	211903.875000
1404.946289	211290.156250
1403.873047	210835.093750
1402.799805	209979.468750
1401.726562	210614.890625
1400.653320	210122.906250
1399.580078	209477.421875
1398.505859	210443.140625
1397.431641	210386.703125
1396.357422	210118.484375
1395.283203	210827.609375
1394.208008	210152.281250
1393.133789	210612.234375
1392.058594	210165.078125
1390.983398	209792.468750
1389.908203	209691.968750
1388.832031	210430.578125
1387.756836	209918.656250
1386.680664	209655.531250
1385.604492	209443.593750
1384.528320	209875.078125
1383.451172	210125.281250
1382.375000	208592.250000
1381.297852	209773.437500
1380.220703	209689.265625
1379.143555	209057.484375
1378.065430	209154.437500
1376.988281	208495.125000
1375.910156	209612.593750
1374.832031	208865.312500
1373.753906	209022.453125
1372.674805	208607.000000
1371.596680	208363.187500
1370.517578	209433.281250
1369.438477	208482.781250
1368.359375	208065.359375
1367.279297	208738.890625
1366.200195	207170.765625
1365.120117	208443.796875
1364.040039	207292.906250
1362.959961	208567.750000
1361.878906	208243.281250
1360.798828	207606.593750
1359.717773	207849.078125
1358.636719	208153.890625
1357.555664	207401.937500
1356.473633	206823.625000
1355.392578	207831.093750
1354.310547	207587.968750
1353.228516	207844.000000
1352.146484	207605.578125
1351.063477	207873.046875
1349.981445	207708.578125
1348.898438	207370.984375
1347.815430	207802.234375
1346.732422	207023.906250
1345.649414	207457.328125
1344.565430	207013.875000
1343.481445	207592.468750
1342.397461	206680.937500
1341.313477	206666.734375
1340.229492	207053.687500
1339.144531	207122.375000
1338.059570	207410.000000
1336.974609	207679.062500
1335.889648	207494.156250
1334.804688	206712.734375
1333.718750	207115.328125
1332.632812	207144.734375
1331.546875	207728.968750
1330.460938	206745.468750
1329.375000	207131.609375
1328.288086	206270.500000
1327.201172	206424.234375
1326.114258	205719.953125
1325.027344	206322.156250
1323.940430	206473.453125
1322.852539	206776.437500
1321.764648	207293.046875
1320.676758	205366.640625
1319.588867	206133.734375
1318.500977	206528.406250
1317.412109	206419.921875
1316.324219	206217.312500
1315.235352	205916.046875
1314.145508	205461.078125
1313.056641	205681.046875
1311.966797	205834.359375
1310.876953	205198.375000
1309.787109	204950.281250
1308.697266	205170.140625
1307.607422	204142.484375
1306.516602	204195.031250
1305.425781	205292.796875
1304.334961	204492.531250
1303.244141	205037.609375
1302.153320	204519.468750
1301.061523	204706.984375
1299.969727	203889.046875
1298.877930	204239.187500
1297.786133	203435.343750
1296.694336	203389.421875
1295.601562	203998.031250
1294.508789	203519.562500
1293.416016	202695.812500
1292.323242	202956.515625
1291.230469	202220.046875
1290.136719	202679.656250
1289.042969	202631.578125
1287.949219	202119.531250
1286.855469	202210.968750
1285.760742	201635.187500
1284.666992	201363.437500
1283.572266	201585.109375
1282.477539	201468.734375
1281.381836	200587.531250
1280.287109	201204.109375
1279.191406	200912.093750
1278.095703	200882.593750
1277.000000	200889.609375
1275.904297	201088.218750
1274.808594	200388.156250
1273.711914	200937.937500
1272.615234	200495.765625
1271.518555	199912.421875
1270.421875	199523.000000
1269.324219	200065.656250
1268.226562	199840.359375
1267.129883	199246.125000
1266.031250	199717.921875
1264.933594	199105.703125
1263.835938	199062.828125
1262.737305	199076.859375
1261.638672	198062.265625
1260.540039	198458.703125
1259.441406	198602.484375
1258.341797	198482.375000
1257.242188	197921.125000
1256.142578	198278.625000
1255.042969	198492.765625
1253.943359	198238.625000
1252.842773	197800.500000
1251.743164	197882.812500
1250.642578	197601.640625
1249.541016	197774.781250
1248.440430	197664.015625
1247.338867	197242.250000
1246.238281	197494.796875
1245.136719	197329.640625
1244.034180	196492.875000
1242.932617	197115.203125
1241.831055	196907.078125
1240.728516	197247.859375
1239.625977	195926.453125
1238.522461	196736.546875
1237.419922	196288.359375
1236.316406	196694.687500
1235.213867	196523.078125
1234.110352	195907.500000
1233.005859	196932.000000
1231.902344	196425.250000
1230.797852	195757.921875
1229.693359	196580.406250
1228.588867	195623.562500
1227.484375	195393.453125
1226.379883	195514.140625
1225.274414	195261.500000
1224.168945	195902.343750
1223.063477	195907.500000
1221.958008	195786.046875
1220.851562	195560.640625
1219.746094	196266.468750
1218.639648	195878.343750
1217.533203	195350.281250
1216.425781	196365.203125
1215.319336	195168.718750
1214.211914	195659.421875
1213.104492	195463.609375
1211.997070	195105.343750
1210.889648	194659.187500
1209.781250	196054.421875
1208.672852	195856.390625
1207.564453	195435.125000
1206.456055	195336.500000
1205.347656	195609.921875
1204.238281	194618.562500
1203.128906	195385.625000
1202.019531	195654.359375
1200.910156	195812.593750
1199.800781	195119.234375
1198.690430	194678.375000
1197.580078	195818.500000
1196.469727	195181.781250
1195.359375	195650.562500
1194.249023	195189.640625
1193.137695	194967.406250
1192.026367	194221.015625
1190.915039	194507.406250
1189.803711	194726.187500
1188.691406	194562.625000
1187.580078	194435.093750
1186.467773	195017.906250
1185.355469	194890.312500
1184.242188	194893.078125
1183.129883	193586.078125
1182.016602	194862.656250
1180.903320	194602.640625
1179.790039	194129.421875
1178.676758	193380.218750
1177.562500	195365.140625
1176.449219	195040.125000
1175.334961	193965.812500
1174.219727	193739.843750
1173.105469	193516.203125
1171.990234	194090.968750
1170.875977	193831.437500
1169.760742	193558.562500
1168.644531	193155.781250
1167.529297	193335.765625
1166.413086	192722.546875
1165.297852	193617.093750
1164.181641	193624.421875
1163.064453	192668.843750
1161.948242	192938.265625
1160.831055	193382.171875
1159.713867	192590.515625
1158.596680	193058.921875
1157.479492	192824.671875
1156.362305	191794.187500
1155.244141	192287.062500
1154.125977	191442.625000
1153.007812	192684.281250
1151.888672	192083.703125
1150.770508	192205.156250
1149.651367	192150.046875
1148.532227	192099.406250
1147.413086	190969.984375
1146.293945	191526.984375
1145.173828	190858.000000
1144.053711	191088.875000
1142.933594	191495.984375
1141.813477	191356.218750
1140.693359	190904.125000
1139.572266	190552.593750
1138.451172	190511.171875
1137.330078	190815.406250
1136.208984	190490.796875
1135.086914	189970.140625
1133.965820	190668.750000
1132.843750	190003.390625
1131.721680	190075.687500
1130.599609	189840.578125
1129.476562	189271.468750
1128.353516	189844.843750
1127.230469	189616.546875
1126.107422	189107.859375
1124.984375	189238.062500
1123.860352	188840.875000
1122.737305	189075.609375
1121.613281	188889.890625
1120.488281	189020.000000
1119.364258	188574.187500
1118.239258	187928.468750
1117.115234	188567.625000
1115.990234	188851.000000
1114.864258	188267.765625
1113.739258	187871.328125
1112.613281	188019.171875
1111.487305	188060.359375
1110.361328	188026.031250
1109.235352	187250.328125
1108.108398	187695.531250
1106.982422	188227.093750
1105.855469	187866.609375
1104.728516	187382.046875
1103.600586	187434.328125
1102.473633	187823.609375
1101.345703	187771.578125
1100.217773	187770.546875
1099.089844	186745.671875
1097.960938	187611.140625
1096.833008	187503.765625
1095.704102	187600.203125
1094.575195	187426.421875
1093.446289	187387.765625
1092.316406	186879.812500
1091.187500	187392.343750
1090.057617	187608.171875
1088.927734	187354.859375
1087.796875	187075.093750
1086.666992	187255.437500
1085.536133	187115.078125
1084.405273	187052.140625
1083.274414	187928.656250
1082.143555	187644.578125
1081.011719	188107.453125
1079.879883	186944.156250
1078.748047	187168.406250
1077.616211	186915.562500
1076.484375	187139.734375
1075.351562	186946.562500
1074.218750	186960.937500
1073.085938	186732.562500
1071.953125	186729.296875
1070.820312	188634.218750
1069.686523	189916.453125
1068.552734	189440.687500
1067.418945	186491.312500
1066.284180	187171.421875
1065.150391	186685.375000
1064.015625	186609.343750
1062.880859	186709.609375
1061.746094	185992.593750
1060.611328	186775.625000
1059.475586	186814.125000
1058.339844	187279.687500
1057.204102	186182.250000
1056.068359	186449.687500
1054.932617	185891.875000
1053.795898	186621.234375
1052.659180	186160.359375
1051.522461	185310.406250
1050.385742	185681.046875
1049.248047	185748.171875
1048.110352	185529.546875
1046.972656	186748.156250
1045.834961	185435.234375
1044.697266	185172.812500
1043.558594	185837.343750
1042.419922	185302.640625
1041.281250	185398.234375
1040.142578	185487.203125
1039.003906	185350.062500
1037.864258	185395.109375
1036.724609	185148.328125
1035.584961	185151.703125
1034.445312	184720.828125
1033.304688	184548.843750
1032.165039	184569.828125
1031.024414	184229.140625
1029.883789	183840.359375
1028.742188	184696.250000
1027.601562	184993.187500
1026.459961	184203.625000
1025.318359	183622.390625
1024.176758	183713.531250
1023.034180	184003.828125
1021.892578	183641.796875
1020.750000	183923.234375
1019.607422	183414.734375
1018.463867	183682.968750
1017.321289	183222.812500
1016.177734	183224.187500
1015.034180	182919.484375
1013.890625	182907.796875
1012.747070	182990.078125
1011.602539	183072.312500
1010.458008	182713.218750
1009.313477	183249.781250
1008.168945	183041.453125
1007.024414	182802.625000
1005.878906	183175.125000
1004.733398	182632.953125
1003.587891	182726.000000
1002.442383	183451.765625
1001.295898	182700.390625
1000.149414	182272.078125
999.002930	182066.343750
997.856445	182266.203125
996.709961	182712.312500
995.562500	182478.265625
994.415039	182113.546875
993.267578	181633.468750
992.120117	182584.703125
990.972656	181701.796875
989.824219	182193.203125
988.675781	181608.937500
987.527344	182565.968750
986.378906	183098.250000
985.229492	181286.937500
984.080078	181843.187500
982.930664	182268.718750
981.781250	182143.890625
980.631836	181675.562500
979.481445	181866.093750
978.331055	181932.656250
977.180664	182064.375000
976.030273	182660.984375
974.879883	181745.468750
973.728516	181874.953125
972.577148	182358.328125
971.425781	181992.640625
970.273438	180893.375000
969.122070	181239.906250
967.969727	182484.640625
966.817383	181678.765625
965.665039	181909.984375
964.511719	181564.234375
963.359375	182072.906250
962.206055	181081.218750
961.052734	181986.437500
959.898438	181567.218750
958.745117	181080.984375
957.590820	181082.328125
956.436523	181759.421875
955.282227	181840.750000
954.127930	181586.453125
952.972656	181732.703125
951.817383	181502.312500
950.662109	181499.203125
949.506836	181405.218750
948.350586	181036.562500
947.195312	180808.593750
946.039062	181026.140625
944.882812	181230.625000
943.725586	180674.171875
942.569336	180681.968750
941.412109	180681.109375
940.254883	181123.109375
939.097656	180567.046875
937.939453	180432.296875
936.782227	180468.171875
935.624023	180102.484375
934.465820	180157.796875
933.306641	180530.312500
932.148438	181202.562500
930.989258	180198.468750
929.830078	179572.171875
928.670898	179446.359375
927.510742	180094.578125
926.351562	179671.234375
925.191406	179034.687500
924.031250	179697.671875
922.871094	179242.296875
921.709961	179607.750000
920.548828	179003.937500
919.387695	178471.406250
918.226562	179430.937500
917.065430	178864.062500
915.903320	178372.718750
914.741211	178729.265625
913.579102	179169.562500
912.416992	179037.593750
911.254883	178039.046875
910.091797	177892.265625
908.928711	178803.125000
907.765625	178368.250000
906.601562	177407.062500
905.438477	177945.812500
904.274414	178340.437500
903.110352	177860.828125
901.946289	176941.218750
900.781250	177501.093750
899.617188	177689.421875
898.452148	177201.671875
897.287109	176988.734375
896.121094	177159.859375
894.956055	177307.328125
893.790039	176922.906250
892.624023	177284.750000
891.458008	176540.328125
890.291016	176473.453125
889.125000	175948.015625
887.958008	176770.359375
886.791016	175242.562500
885.623047	175782.031250
884.456055	175991.531250
883.288086	175877.671875
882.120117	176966.796875
880.952148	176675.156250
879.783203	175942.843750
878.615234	176329.640625
877.446289	175875.703125
876.277344	176399.218750
875.107422	176251.171875
873.938477	175831.671875
872.768555	175521.328125
871.598633	175734.640625
870.428711	176024.781250
869.257812	177006.906250
868.087891	176416.765625
866.916992	175404.031250
865.746094	175785.781250
864.575195	176267.718750
863.403320	176563.781250
862.231445	176430.843750
861.059570	176127.281250
859.887695	175776.906250
858.715820	176330.859375
857.542969	176430.453125
856.370117	176148.390625
855.197266	175941.031250
854.024414	175546.218750
852.850586	176890.125000
851.676758	175819.984375
850.503906	176236.843750
849.329102	176845.203125
848.155273	176014.093750
846.980469	176558.375000
845.805664	176902.406250
844.630859	176290.890625
843.456055	176436.968750
842.280273	177087.109375
841.105469	176292.968750
839.929688	176726.000000
838.753906	176204.328125
837.577148	176237.593750
836.400391	176870.125000
835.224609	176357.187500
834.046875	176685.671875
832.870117	177022.515625
831.693359	176639.343750
830.515625	176746.750000
829.337891	176775.578125
828.160156	176167.671875
826.981445	175999.234375
825.803711	176704.937500
824.625000	176574.625000
823.446289	176753.984375
822.266602	176835.734375
821.087891	176139.421875
819.908203	176140.687500
818.728516	177087.125000
817.548828	176151.687500
816.368164	176277.921875
815.188477	177422.875000
814.007812	176388.343750
812.827148	177003.515625
811.645508	176433.015625
810.464844	176980.218750
809.283203	176026.921875
808.101562	176383.562500
806.919922	176386.812500
805.737305	175537.750000
804.554688	176232.593750
803.373047	177085.718750
802.189453	176368.015625
801.006836	175927.437500
799.823242	175882.125000
798.640625	176312.140625
797.457031	175685.921875
796.272461	175851.828125
795.088867	174997.875000
793.904297	175972.328125
792.719727	175576.656250
791.535156	175001.750000
790.350586	175127.515625
789.165039	175065.468750
787.979492	175564.453125
786.793945	175409.562500
785.608398	175400.187500
784.421875	174981.890625
783.236328	175248.656250
782.049805	175477.390625
780.862305	175444.812500
779.675781	175742.906250
778.488281	175095.359375
777.300781	174963.875000
776.113281	175261.875000
774.925781	174322.203125
773.737305	174908.484375
772.549805	174775.000000
771.361328	174357.578125
770.171875	175206.406250
768.983398	174635.546875
767.793945	174172.109375
766.604492	174387.781250
765.415039	174168.328125
764.225586	175251.687500
763.035156	174391.406250
761.845703	174100.640625
760.655273	174958.671875
759.463867	174275.265625
758.273438	173785.234375
757.082031	173645.890625
755.890625	174115.125000
754.699219	174233.812500
753.507812	174138.484375
752.315430	174299.046875
751.123047	174258.250000
749.930664	173871.515625
748.738281	173749.046875
747.544922	173704.156250
746.351562	173493.734375
745.158203	173530.593750
743.964844	173984.250000
742.771484	173449.265625
741.577148	173241.125000
740.382812	173970.875000
739.188477	173402.687500
737.994141	173901.937500
736.798828	173495.062500
735.603516	172941.906250
734.408203	173376.109375
733.212891	173425.375000
732.016602	173489.265625
730.821289	173580.281250
729.625000	173161.343750
728.428711	172874.171875
727.231445	173671.359375
726.035156	173436.406250
724.837891	173126.359375
723.640625	172849.828125
722.442383	173107.796875
721.245117	172927.375000
720.046875	172934.796875
718.848633	172981.875000
717.650391	173168.671875
716.451172	172921.578125
715.252930	174484.546875
714.053711	172780.000000
712.854492	173456.515625
711.654297	173228.296875
710.455078	173339.781250
709.254883	172805.390625
708.054688	172923.156250
706.853516	173088.750000
705.653320	173146.015625
704.452148	172822.296875
703.250977	173260.453125
702.049805	173076.234375
700.847656	173123.015625
699.646484	172957.609375
698.444336	173511.843750
697.242188	172572.875000
696.039062	173199.718750
694.836914	173601.843750
693.633789	173712.859375
692.430664	172404.656250
691.227539	172831.609375
690.023438	173304.093750
688.819336	174031.812500
687.615234	173723.187500
686.411133	172870.781250
685.207031	173023.250000
684.001953	172860.218750
682.796875	173373.609375
681.591797	172828.875000
680.386719	172823.578125
679.180664	172816.203125
677.974609	172485.390625
676.768555	173390.093750
675.562500	172947.375000
674.356445	173060.125000
673.149414	173000.875000
671.942383	173014.140625
670.735352	172464.093750
669.527344	173090.296875
668.320312	172544.578125
667.112305	172812.453125
665.904297	172695.328125
664.695312	172067.218750
663.487305	172630.796875
662.278320	172991.500000
661.069336	173027.406250
659.860352	173319.656250
658.650391	172973.078125
657.440430	172599.750000
656.230469	172367.062500
655.020508	172845.109375
653.810547	172562.875000
652.599609	171828.500000
651.388672	172099.875000
650.177734	171297.718750
648.966797	171375.062500
647.754883	172191.125000
646.542969	171015.953125
645.331055	171047.906250
644.119141	171595.437500
642.906250	171831.406250
641.694336	171353.953125
640.481445	171785.671875
639.267578	171339.312500
638.054688	171457.671875
636.840820	171304.046875
635.626953	171146.343750
634.413086	170797.187500
633.199219	170468.734375
631.984375	170634.453125
630.769531	171335.218750
629.554688	170103.468750
628.339844	170890.468750
627.124023	170352.453125
625.909180	170337.015625
624.693359	170541.593750
623.476562	170392.468750
622.260742	170761.375000
621.043945	170147.812500
619.827148	170481.687500
618.610352	171287.906250
617.393555	170851.203125
616.175781	171490.703125
614.958008	170961.718750
613.740234	170796.265625
612.522461	170745.796875
611.303711	170904.625000
610.084961	170991.593750
608.866211	170600.593750
607.647461	170470.187500
606.427734	170801.171875
605.208984	170777.359375
603.989258	169773.812500
602.768555	170395.703125
601.548828	170134.281250
600.328125	169698.828125
599.107422	169402.812500
597.886719	169649.546875
596.666016	169251.250000
595.444336	169815.187500
594.222656	169556.171875
593.000977	169661.468750
591.779297	169005.671875
590.556641	169511.921875
589.334961	169386.046875
588.112305	169802.062500
586.888672	169586.218750
585.666016	169811.937500
584.442383	169626.796875
583.218750	169889.187500
581.995117	169646.906250
580.770508	169755.984375
579.546875	169287.140625
578.322266	169122.671875
577.097656	169507.328125
575.872070	169195.921875
574.647461	169037.656250
573.421875	169491.453125
572.196289	169172.031250
570.969727	169132.109375
569.744141	169424.546875
568.517578	168987.062500
567.291016	169613.656250
566.064453	170348.000000
564.836914	168942.796875
563.609375	169536.421875
562.381836	169993.375000
561.154297	169153.046875
559.926758	169424.609375
558.698242	168883.906250
557.469727	168622.218750
556.241211	169135.828125
555.012695	168046.187500
553.783203	168258.687500
552.553711	168383.640625
551.324219	168390.625000
550.094727	168426.062500
548.864258	168307.000000
547.633789	168198.140625
546.403320	167296.968750
545.172852	168244.593750
543.941406	167386.390625
542.710938	166926.468750
541.479492	167623.890625
540.247070	167206.718750
539.015625	166442.671875
537.783203	166841.515625
536.550781	167556.656250
535.318359	166139.859375
534.085938	166676.390625
532.852539	166565.968750
531.619141	166092.718750
530.385742	166254.015625
529.152344	165539.859375
527.917969	165437.796875
526.683594	166081.171875
525.449219	165511.218750
524.214844	165285.687500
522.979492	165309.234375
521.744141	166043.187500
520.508789	165710.406250
519.273438	165209.812500
518.037109	164753.906250
516.801758	165026.250000
515.565430	164829.359375
514.328125	164875.140625
513.091797	164678.343750
511.854492	165172.781250
510.617188	165268.968750
509.379883	164696.421875
508.142578	164174.562500
506.904297	164525.312500
505.666016	164272.218750
504.427734	164600.593750
503.189453	164117.468750
501.950195	164288.343750
500.710938	165112.828125
499.471680	164125.562500
498.232422	165169.578125
496.992188	164525.453125
495.751953	164603.312500
494.511719	165307.984375
493.271484	165149.859375
492.030273	164510.218750
490.790039	164849.875000
489.548828	164315.265625
488.306641	164928.671875
487.065430	164174.765625
485.823242	164397.437500
484.581055	164094.734375
483.338867	164166.390625
482.095703	164030.812500
480.853516	163965.671875
479.610352	163830.156250
478.367188	164897.093750
477.123047	164681.031250
475.879883	164603.734375
474.635742	163975.812500
473.391602	164190.000000
472.146484	164102.765625
470.902344	164401.171875
469.657227	164454.468750
468.412109	164983.578125
467.166016	164153.515625
465.920898	164367.375000
464.674805	163674.171875
463.428711	164275.203125
462.182617	163277.390625
460.935547	163635.609375
459.688477	163526.500000
458.441406	163908.578125
457.194336	163691.218750
455.946289	162526.093750
454.699219	163561.265625
453.451172	163213.859375
452.202148	163128.953125
450.954102	162931.921875
449.705078	162710.953125
448.456055	162610.140625
447.207031	162317.250000
445.958008	162240.546875
444.708008	161447.703125
443.458008	161839.203125
442.208008	162178.562500
440.957031	161324.156250
439.707031	161431.593750
438.456055	161005.343750
437.205078	161022.859375
435.953125	160954.453125
434.702148	160688.312500
433.450195	160204.578125
432.198242	160385.921875
430.945312	160902.593750
429.693359	160173.562500
428.440430	160638.171875
427.187500	160226.687500
425.934570	159978.937500
424.680664	160806.281250
423.426758	160187.609375
422.172852	160021.718750
420.918945	161745.546875
419.664062	160331.843750
418.410156	161008.843750
417.155273	161283.171875
415.899414	162095.171875
414.644531	162936.734375
413.388672	162258.796875
412.132812	162335.562500
410.876953	161460.937500
409.620117	161691.046875
408.364258	160679.578125
407.107422	160235.406250
405.849609	160853.406250
404.592773	160296.000000
403.334961	159877.968750
402.077148	158531.843750
400.819336	159249.031250
399.561523	159220.843750
398.302734	158586.781250
397.043945	158310.437500
395.785156	158832.484375
394.525391	158945.328125
393.266602	158440.781250
392.006836	158049.546875
390.747070	158186.265625
389.486328	158791.125000
388.226562	158197.703125
386.965820	157594.578125
385.705078	157534.968750
384.443359	158224.703125
383.182617	157935.046875
381.920898	157433.468750
380.659180	158219.890625
379.396484	157575.812500
378.134766	157322.125000
376.872070	157684.343750
375.609375	156896.187500
374.346680	156391.359375
373.083008	156674.375000
371.819336	156848.437500
370.555664	156601.078125
369.291992	156854.187500
368.027344	156769.046875
366.762695	156589.031250
365.498047	155434.546875
364.233398	156078.984375
362.968750	155502.000000
361.703125	155830.062500
360.437500	155561.468750
359.170898	154894.046875
357.905273	155079.859375
356.638672	155129.375000
355.372070	154555.156250
354.105469	154774.453125
352.837891	155151.500000
351.571289	154196.859375
350.303711	154193.203125
349.035156	153872.078125
347.767578	153158.734375
346.499023	153805.734375
345.230469	153944.015625
343.961914	153723.640625
342.692383	153554.546875
341.423828	153111.750000
340.154297	152633.656250
338.883789	153065.359375
337.614258	152294.140625
336.343750	152420.671875
335.073242	152954.468750
333.802734	152787.671875
332.532227	152595.359375
331.260742	152469.984375
329.989258	152625.812500
328.717773	151462.468750
327.445312	151984.000000
326.173828	151925.625000
324.901367	151063.656250
323.627930	151814.796875
322.355469	151314.546875
321.082031	151935.718750
319.808594	151665.328125
318.535156	151589.359375
317.261719	151727.328125
315.987305	151616.046875
314.712891	151440.062500
313.438477	151489.687500
312.164062	151441.250000
310.888672	151549.671875
309.613281	151720.765625
308.337891	152534.640625
307.061523	152570.265625
305.786133	152435.421875
304.509766	152884.343750
303.233398	152912.031250
301.956055	154320.109375
300.678711	154519.765625
299.402344	154791.765625
298.124023	154605.718750
296.846680	155444.984375
295.568359	156103.953125
294.290039	157658.421875
293.011719	156308.453125
291.733398	155140.828125
290.454102	153111.609375
289.174805	150747.000000
287.895508	150571.718750
286.616211	149798.718750
285.335938	148281.812500
284.055664	148767.140625
282.775391	147938.265625
281.494141	147390.812500
280.213867	147345.140625
278.932617	146790.187500
277.651367	146411.015625
276.369141	146578.156250
275.087891	145752.562500
273.805664	145360.140625
272.523438	145517.609375
271.240234	146062.890625
269.958008	145286.703125
268.674805	144943.359375
267.390625	145118.296875
266.107422	144851.046875
264.823242	144169.125000
263.539062	144289.578125
262.254883	144437.234375
260.970703	144026.265625
259.685547	144107.750000
258.400391	143776.750000
257.115234	144290.031250
255.830078	143712.140625
254.543945	144028.843750
253.257812	143616.453125
251.971680	144109.890625
250.684570	143235.156250
249.398438	143633.265625
248.111328	143941.875000
246.824219	143918.265625
245.536133	143950.968750
244.248047	142948.937500
242.960938	142956.562500
241.671875	143177.640625
240.383789	142407.187500
239.094727	141937.703125
237.805664	141966.812500
236.516602	142156.875000
235.227539	142606.625000
233.937500	142123.859375
232.647461	142678.078125
231.357422	143172.031250
230.066406	144853.312500
228.775391	146737.296875
227.485352	147361.843750
226.193359	146487.578125
224.902344	144055.359375
223.610352	142376.921875
222.318359	140579.156250
221.026367	140283.343750
219.733398	139680.109375
218.441406	139104.156250
217.148438	138541.953125
215.854492	138745.500000
214.561523	138817.515625
213.267578	138686.609375
211.973633	138219.562500
210.679688	137930.406250
209.384766	137730.187500
208.090820	136726.765625
206.795898	136795.203125
205.500000	136338.578125
204.205078	136121.421875
202.909180	136280.593750
201.613281	135758.718750
200.317383	135883.171875
199.020508	134966.250000
197.723633	135164.046875
196.426758	134342.046875
195.129883	134543.734375
193.832031	133575.718750
192.534180	134054.890625
191.236328	132939.000000
189.938477	133025.234375
188.639648	133078.687500
187.341797	132908.812500
186.042969	133125.859375
184.743164	132830.937500
183.444336	132845.890625
182.144531	132403.015625
180.844727	132658.421875
179.543945	132231.125000
178.244141	131955.859375
176.943359	131684.531250
175.642578	132374.171875
174.340820	131511.078125
173.040039	130976.804688
171.738281	131760.265625
170.435547	131151.250000
169.133789	131247.046875
167.831055	131876.421875
166.528320	130492.375000
165.225586	131060.242188
163.922852	130348.312500
162.619141	130213.976562
161.315430	129891.757812
160.011719	128982.953125
158.708008	129703.890625
157.403320	128787.796875
156.098633	128732.421875
154.793945	128123.382812
153.488281	128694.507812
152.182617	127899.929688
150.876953	127536.468750
149.571289	127255.460938
148.265625	126050.093750
146.958984	127440.062500
145.652344	126325.031250
144.345703	126748.390625
143.038086	126647.546875
141.730469	126252.265625
140.422852	126405.812500
139.115234	125760.320312
137.806641	125380.703125
136.498047	124905.695312
135.189453	123777.531250
133.880859	122772.031250
132.571289	122253.859375
131.262695	120895.820312
129.952148	119792.171875
128.642578	118566.796875
127.332031	116855.320312
126.021484	114213.515625
124.710938	112831.585938
123.400391	110992.507812
122.088867	108471.539062
120.777344	106245.109375
119.465820	102260.359375
