#Wave		#Intensity
1999.057617	182894.093750
1998.089844	183018.093750
1997.122070	183482.109375
1996.154297	183780.671875
1995.186523	183831.265625
1994.217773	183515.265625
1993.249023	183625.234375
1992.280273	183265.484375
1991.311523	183032.281250
1990.341797	183872.312500
1989.373047	183902.156250
1988.403320	184086.718750
1987.433594	183856.078125
1986.463867	184499.437500
1985.494141	183730.109375
1984.524414	184880.921875
1983.553711	184609.062500
1982.583008	184053.906250
1981.613281	184153.171875
1980.641602	184481.578125
1979.670898	184202.218750
1978.700195	184563.953125
1977.728516	184117.375000
1976.756836	184391.484375
1975.785156	183425.328125
1974.813477	185070.609375
1973.841797	184006.906250
1972.869141	185270.906250
1971.897461	185341.421875
1970.924805	185383.640625
1969.952148	185060.843750
1968.979492	184802.390625
1968.005859	184849.796875
1967.033203	185724.359375
1966.059570	185622.593750
1965.085938	185138.218750
1964.112305	185257.390625
1963.138672	184970.890625
1962.165039	184376.500000
1961.190430	186541.015625
1960.215820	185941.406250
1959.242188	184985.406250
1958.266602	185709.750000
1957.291992	185564.484375
1956.317383	185421.828125
1955.341797	185458.656250
1954.366211	185818.421875
1953.390625	185896.156250
1952.415039	186829.640625
1951.439453	185364.984375
1950.463867	186067.703125
1949.487305	185694.593750
1948.510742	185966.843750
1947.534180	185622.031250
1946.557617	186265.312500
1945.580078	185818.203125
1944.603516	185732.000000
1943.625977	186310.953125
1942.648438	186303.968750
1941.670898	186465.765625
1940.693359	186890.843750
1939.715820	186684.343750
1938.737305	186311.765625
1937.758789	186933.406250
1936.780273	194737.125000
1935.801758	186078.687500
1934.823242	186316.890625
1933.844727	186922.750000
1932.865234	187122.406250
1931.885742	186334.046875
1930.906250	186929.359375
1929.926758	186529.187500
1928.947266	187157.406250
1927.966797	186775.171875
1926.986328	186352.265625
1926.006836	187523.343750
1925.026367	186070.359375
1924.044922	186387.062500
1923.064453	186097.015625
1922.083008	186841.718750
1921.102539	187099.500000
1920.121094	186840.031250
1919.139648	187100.250000
1918.157227	187215.218750
1917.175781	186803.078125
1916.193359	186836.578125
1915.211914	186653.703125
1914.229492	186254.593750
1913.246094	187143.046875
1912.263672	185665.343750
1911.281250	187016.500000
1910.297852	186670.968750
1909.314453	186106.890625
1908.331055	185873.484375
1907.347656	186717.812500
1906.363281	187033.281250
1905.379883	186350.078125
1904.395508	186909.359375
1903.411133	187161.093750
1902.426758	186442.671875
1901.442383	186752.781250
1900.458008	186907.937500
1899.472656	187557.953125
1898.487305	186789.171875
1897.501953	186875.703125
1896.516602	186873.406250
1895.531250	186422.171875
1894.544922	186863.734375
1893.559570	186242.765625
1892.573242	186656.296875
1891.586914	186866.906250
1890.599609	186340.000000
1889.613281	186773.546875
1888.625977	187442.531250
1887.639648	186862.593750
1886.652344	186971.656250
1885.665039	186875.593750
1884.676758	186842.828125
1883.689453	187048.000000
1882.701172	187614.953125
1881.713867	186825.562500
1880.725586	187263.328125
1879.736328	187276.015625
1878.748047	186390.968750
1877.759766	187417.671875
1876.770508	187963.703125
1875.781250	187132.062500
1874.791992	187255.921875
1873.802734	187180.125000
1872.812500	187475.703125
1871.823242	187036.187500
1870.833008	186947.812500
1869.842773	186465.609375
1868.852539	186740.875000
1867.862305	187212.890625
1866.871094	187157.343750
1865.880859	187528.187500
1864.889648	187507.906250
1863.898438	187580.937500
1862.907227	187636.281250
1861.915039	187227.671875
1860.923828	187333.468750
1859.931641	187731.578125
1858.939453	188268.140625
1857.947266	188207.375000
1856.955078	188184.421875
1855.961914	187884.406250
1854.969727	188062.953125
1853.976562	187617.031250
1852.983398	188233.546875
1851.990234	187895.968750
1850.997070	188240.437500
1850.002930	186992.171875
1849.008789	187912.718750
1848.014648	187887.265625
1847.020508	187645.546875
1846.026367	188034.984375
1845.032227	187386.078125
1844.037109	188185.078125
1843.042969	187669.546875
1842.047852	188347.609375
1841.051758	188701.375000
1840.056641	188489.890625
1839.061523	188680.265625
1838.065430	189041.296875
1837.069336	188809.765625
1836.073242	188984.906250
1835.077148	189270.390625
1834.081055	188928.531250
1833.083984	188195.453125
1832.086914	188528.562500
1831.090820	189134.859375
1830.092773	188820.812500
1829.095703	188729.968750
1828.098633	189120.343750
1827.100586	189605.812500
1826.102539	189449.703125
1825.104492	189383.828125
1824.106445	188809.562500
1823.108398	189129.437500
1822.109375	190087.609375
1821.111328	190319.531250
1820.112305	189825.546875
1819.113281	189216.640625
1818.113281	189778.796875
1817.114258	189480.265625
1816.114258	189712.046875
1815.115234	189068.546875
1814.115234	189715.312500
1813.115234	190051.890625
1812.114258	190235.875000
1811.114258	189485.265625
1810.113281	190303.859375
1809.112305	189665.875000
1808.111328	189649.984375
1807.110352	190697.812500
1806.109375	189807.921875
1805.107422	190143.953125
1804.105469	189491.546875
1803.103516	189151.281250
1802.101562	189277.656250
1801.099609	190224.625000
1800.096680	188769.593750
1799.094727	189367.218750
1798.091797	189456.031250
1797.088867	190337.468750
1796.085938	190431.062500
1795.082031	189699.843750
1794.079102	189586.718750
1793.075195	189423.796875
1792.071289	189467.640625
1791.067383	189464.156250
1790.063477	189570.203125
1789.058594	190465.250000
1788.053711	189620.390625
1787.049805	189649.187500
1786.044922	189292.359375
1785.039062	189283.890625
1784.034180	189775.281250
1783.028320	190194.390625
1782.023438	189502.062500
1781.017578	189317.046875
1780.011719	189370.671875
1779.004883	188487.515625
1777.999023	189641.796875
1776.992188	188850.781250
1775.985352	189582.390625
1774.978516	189166.593750
1773.971680	189158.078125
1772.964844	189794.906250
1771.957031	189533.125000
1770.950195	189182.109375
1769.942383	189193.406250
1768.934570	188924.421875
1767.925781	189411.890625
1766.917969	188795.812500
1765.909180	189069.921875
1764.900391	189500.078125
1763.891602	189077.578125
1762.882812	189304.390625
1761.874023	189278.437500
1760.864258	189240.093750
1759.854492	188587.593750
1758.844727	188272.062500
1757.834961	188488.875000
1756.825195	188878.875000
1755.815430	188320.906250
1754.804688	189376.343750
1753.793945	188187.656250
1752.783203	189143.796875
1751.772461	188492.187500
1750.760742	188629.515625
1749.750000	188623.421875
1748.738281	188318.250000
1747.726562	188579.078125
1746.714844	188422.250000
1745.703125	188697.781250
1744.690430	188913.921875
1743.678711	188552.125000
1742.666016	189074.375000
1741.653320	188347.312500
1740.640625	188368.359375
1739.626953	188391.843750
1738.614258	188435.062500
1737.600586	188537.453125
1736.586914	188642.281250
1735.573242	188419.078125
1734.558594	188371.000000
1733.544922	188369.781250
1732.530273	188287.203125
1731.515625	188916.812500
1730.500977	188910.546875
1729.486328	188224.375000
1728.471680	188257.609375
1727.456055	188923.687500
1726.440430	188250.171875
1725.424805	187882.125000
1724.409180	188838.312500
1723.393555	188209.437500
1722.376953	188114.671875
1721.360352	188492.218750
1720.344727	188296.578125
1719.328125	188708.375000
1718.310547	187767.796875
1717.293945	188245.890625
1716.276367	188126.593750
1715.258789	189442.359375
1714.241211	188379.453125
1713.223633	188483.703125
1712.206055	188808.937500
1711.187500	188245.156250
1710.169922	188928.750000
1709.151367	188009.203125
1708.132812	189090.156250
1707.113281	188575.765625
1706.094727	188723.968750
1705.075195	189016.812500
1704.055664	188517.406250
1703.036133	188712.093750
1702.016602	188073.156250
1700.997070	188917.390625
1699.976562	188979.546875
1698.956055	188855.437500
1697.935547	188407.984375
1696.915039	188396.687500
1695.894531	188502.937500
1694.873047	188677.703125
1693.852539	188607.578125
1692.831055	188564.406250
1691.809570	189289.671875
1690.788086	189119.140625
1689.765625	189183.515625
1688.743164	189260.093750
1687.721680	189265.703125
1686.699219	188193.015625
1685.676758	189052.000000
1684.653320	189588.031250
1683.630859	189442.046875
1682.607422	189125.046875
1681.583984	188788.625000
1680.560547	189434.203125
1679.537109	188829.203125
1678.512695	188817.734375
1677.488281	189184.640625
1676.464844	188365.187500
1675.440430	188099.984375
1674.415039	188410.671875
1673.390625	188691.984375
1672.365234	188360.984375
1671.340820	189066.515625
1670.315430	188282.031250
1669.290039	188329.109375
1668.263672	187978.875000
1667.238281	188703.437500
1666.211914	187809.906250
1665.185547	188361.265625
1664.159180	187680.000000
1663.132812	187147.515625
1662.105469	188122.328125
1661.079102	188018.375000
1660.051758	187649.156250
1659.024414	188319.140625
1657.997070	188616.640625
1656.968750	187695.296875
1655.941406	187474.734375
1654.913086	187383.125000
1653.884766	187933.390625
1652.856445	186769.703125
1651.828125	187609.093750
1650.798828	187043.640625
1649.769531	188011.437500
1648.740234	187375.656250
1647.710938	187522.140625
1646.681641	188195.484375
1645.652344	186965.171875
1644.622070	187109.187500
1643.591797	187044.437500
1642.561523	187765.890625
1641.531250	187332.250000
1640.500977	187112.218750
1639.469727	186424.187500
1638.438477	186446.875000
1637.408203	186236.796875
1636.375977	186591.562500
1635.344727	186706.265625
1634.313477	186302.375000
1633.281250	185249.359375
1632.249023	186916.875000
1631.216797	186624.546875
1630.184570	185327.437500
1629.151367	186633.312500
1628.119141	185716.671875
1627.085938	185974.093750
1626.052734	185832.171875
1625.019531	186229.796875
1623.985352	185991.109375
1622.952148	185851.656250
1621.917969	185165.796875
1620.883789	185389.140625
1619.849609	184560.984375
1618.815430	185448.937500
1617.780273	185582.703125
1616.745117	185412.015625
1615.709961	185722.046875
1614.674805	185237.437500
1613.639648	184970.312500
1612.604492	184464.265625
1611.568359	185083.171875
1610.532227	184355.250000
1609.496094	184749.546875
1608.459961	184272.828125
1607.423828	184570.484375
1606.386719	184648.593750
1605.349609	184796.593750
1604.312500	184197.234375
1603.275391	184685.078125
1602.238281	185107.687500
1601.200195	184371.234375
1600.163086	184497.421875
1599.125000	183949.187500
1598.086914	185007.312500
1597.047852	184586.781250
1596.009766	184103.781250
1594.970703	183820.718750
1593.931641	184016.625000
1592.892578	184226.875000
1591.853516	184172.437500
1590.814453	183949.671875
1589.774414	184224.718750
1588.734375	183398.546875
1587.694336	183933.203125
1586.654297	183330.859375
1585.614258	184088.796875
1584.573242	184231.406250
1583.532227	183487.593750
1582.492188	184211.453125
1581.450195	183352.625000
1580.409180	183961.000000
1579.368164	183870.625000
1578.326172	183626.687500
1577.284180	183668.375000
1576.242188	183940.343750
1575.200195	183974.750000
1574.157227	184575.109375
1573.115234	184110.640625
1572.072266	183852.484375
1571.029297	183973.140625
1569.985352	183930.781250
1568.942383	183478.687500
1567.898438	184370.734375
1566.855469	184407.343750
1565.811523	183656.031250
1564.767578	184320.078125
1563.722656	184347.078125
1562.678711	184144.281250
1561.633789	183924.796875
1560.588867	183521.156250
1559.543945	184064.968750
1558.499023	183828.859375
1557.453125	183791.296875
1556.407227	183866.125000
1555.361328	184509.875000
1554.315430	184830.718750
1553.269531	186611.546875
1552.223633	185672.734375
1551.176758	183809.765625
1550.129883	183774.593750
1549.083008	183959.125000
1548.036133	184162.687500
1546.989258	183793.250000
1545.941406	183755.703125
1544.893555	184138.125000
1543.845703	183995.531250
1542.797852	183578.656250
1541.750000	183367.031250
1540.701172	183083.921875
1539.652344	183873.796875
1538.603516	184029.296875
1537.554688	183836.781250
1536.505859	183594.281250
1535.456055	183551.984375
1534.407227	184045.640625
1533.357422	183815.125000
1532.307617	183539.437500
1531.256836	183056.703125
1530.207031	183266.812500
1529.156250	183243.625000
1528.105469	183189.484375
1527.054688	183730.140625
1526.003906	182836.265625
1524.953125	182782.203125
1523.901367	183189.453125
1522.849609	183087.796875
1521.797852	182872.078125
1520.746094	182984.375000
1519.694336	183037.234375
1518.641602	183016.421875
1517.588867	182028.875000
1516.536133	183696.718750
1515.483398	182972.953125
1514.430664	183013.859375
1513.376953	182705.828125
1512.323242	181890.046875
1511.269531	182744.937500
1510.215820	182662.468750
1509.162109	182525.453125
1508.107422	181781.406250
1507.053711	182552.687500
1505.999023	181742.500000
1504.944336	181750.312500
1503.888672	181450.046875
1502.833984	181687.703125
1501.778320	181183.812500
1500.722656	181632.218750
1499.666992	182755.343750
1498.611328	180991.937500
1497.555664	180393.812500
1496.499023	181092.890625
1495.442383	181919.484375
1494.385742	181333.312500
1493.329102	180946.062500
1492.271484	181034.312500
1491.214844	180808.031250
1490.157227	180092.421875
1489.099609	181691.218750
1488.041992	181011.156250
1486.983398	180971.671875
1485.925781	180171.468750
1484.867188	179624.296875
1483.808594	180378.593750
1482.750000	180369.921875
1481.691406	180077.953125
1480.631836	180260.515625
1479.572266	179657.125000
1478.512695	179025.640625
1477.453125	180010.390625
1476.393555	179829.562500
1475.333008	179495.500000
1474.273438	179288.875000
1473.212891	179926.296875
1472.152344	179295.390625
1471.090820	178879.156250
1470.030273	179179.343750
1468.968750	179257.984375
1467.907227	178976.203125
1466.845703	178760.468750
1465.784180	178756.703125
1464.721680	178383.328125
1463.660156	178777.390625
1462.597656	178258.250000
1461.535156	178889.796875
1460.472656	178476.656250
1459.409180	179084.421875
1458.345703	178511.468750
1457.283203	178197.343750
1456.219727	178454.546875
1455.155273	178359.109375
1454.091797	177911.218750
1453.027344	178043.781250
1451.963867	178411.203125
1450.899414	178031.625000
1449.833984	178567.984375
1448.769531	177636.765625
1447.704102	177750.453125
1446.639648	177796.031250
1445.574219	177391.062500
1444.507812	177453.093750
1443.442383	176656.578125
1442.375977	178015.625000
1441.310547	177922.734375
1440.244141	177260.187500
1439.177734	177139.312500
1438.110352	177433.296875
1437.043945	177106.234375
1435.976562	177739.796875
1434.909180	176679.625000
1433.841797	177085.859375
1432.773438	177283.546875
1431.706055	177165.125000
1430.637695	176262.625000
1429.569336	176193.546875
1428.500977	176716.453125
1427.432617	176432.078125
1426.363281	176021.500000
1425.294922	176354.718750
1424.225586	176421.265625
1423.156250	175978.156250
1422.085938	175733.875000
1421.016602	176015.468750
1419.946289	176086.656250
1418.875977	176141.468750
1417.805664	175481.578125
1416.735352	175975.468750
1415.664062	176245.046875
1414.593750	175104.593750
1413.522461	175801.312500
1412.451172	175706.734375
1411.379883	175392.875000
1410.307617	176553.343750
1409.235352	174919.390625
1408.164062	175897.640625
1407.090820	175458.046875
1406.018555	175258.687500
1404.946289	175280.796875
1403.873047	174801.906250
1402.799805	174968.515625
1401.726562	175736.031250
1400.653320	174910.296875
1399.580078	175435.359375
1398.505859	176248.906250
1397.431641	174618.140625
1396.357422	174942.812500
1395.283203	174499.515625
1394.208008	174493.734375
1393.133789	174992.671875
1392.058594	174268.203125
1390.983398	174818.140625
1389.908203	174128.812500
1388.832031	174622.781250
1387.756836	175344.312500
1386.680664	174604.125000
1385.604492	173899.046875
1384.528320	174120.921875
1383.451172	174345.046875
1382.375000	175123.968750
1381.297852	174841.765625
1380.220703	174081.531250
1379.143555	173927.218750
1378.065430	173772.953125
1376.988281	173628.015625
1375.910156	173561.984375
1374.832031	174537.125000
1373.753906	173997.984375
1372.674805	173261.984375
1371.596680	173949.250000
1370.517578	173021.187500
1369.438477	173404.734375
1368.359375	173405.953125
1367.279297	174016.234375
1366.200195	173614.421875
1365.120117	173860.968750
1364.040039	173771.796875
1362.959961	173310.046875
1361.878906	173524.109375
1360.798828	172861.296875
1359.717773	173285.812500
1358.636719	173169.046875
1357.555664	172587.546875
1356.473633	173021.125000
1355.392578	173620.937500
1354.310547	172681.468750
1353.228516	173382.781250
1352.146484	172517.609375
1351.063477	173745.281250
1349.981445	173097.406250
1348.898438	173213.984375
1347.815430	172938.062500
1346.732422	173068.453125
1345.649414	172935.718750
1344.565430	172346.218750
1343.481445	172700.375000
1342.397461	173386.515625
1341.313477	172391.375000
1340.229492	173109.593750
1339.144531	173380.343750
1338.059570	172627.703125
1336.974609	171854.609375
1335.889648	173175.968750
1334.804688	172845.296875
1333.718750	173256.296875
1332.632812	172941.828125
1331.546875	173718.703125
1330.460938	172895.546875
1329.375000	172553.671875
1328.288086	173088.578125
1327.201172	173144.765625
1326.114258	173210.140625
1325.027344	173268.562500
1323.940430	172871.718750
1322.852539	172718.671875
1321.764648	173229.937500
1320.676758	172263.375000
1319.588867	172896.296875
1318.500977	172249.437500
1317.412109	172036.890625
1316.324219	172416.890625
1315.235352	171940.343750
1314.145508	172148.031250
1313.056641	171949.406250
1311.966797	172122.593750
1310.876953	171963.031250
1309.787109	171523.656250
1308.697266	170818.390625
1307.607422	170530.718750
1306.516602	170722.312500
1305.425781	170858.812500
1304.334961	171148.796875
1303.244141	170593.140625
1302.153320	170530.250000
1301.061523	169599.250000
1299.969727	170466.343750
1298.877930	170611.859375
1297.786133	170219.312500
1296.694336	169630.046875
1295.601562	169800.781250
1294.508789	169319.343750
1293.416016	170466.890625
1292.323242	168743.500000
1291.230469	168516.328125
1290.136719	169208.375000
1289.042969	169038.343750
1287.949219	168854.640625
1286.855469	168152.265625
1285.760742	168236.093750
1284.666992	168514.062500
1283.572266	168775.937500
1282.477539	168327.531250
1281.381836	167753.703125
1280.287109	167385.515625
1279.191406	167836.796875
1278.095703	167961.609375
1277.000000	167456.671875
1275.904297	167889.437500
1274.808594	167391.531250
1273.711914	167454.734375
1272.615234	166859.031250
1271.518555	167182.156250
1270.421875	167065.296875
1269.324219	166966.703125
1268.226562	167109.625000
1267.129883	167049.765625
1266.031250	167026.375000
1264.933594	166385.906250
1263.835938	166772.390625
1262.737305	165112.500000
1261.638672	165394.375000
1260.540039	166149.406250
1259.441406	165539.234375
1258.341797	165889.093750
1257.242188	166491.250000
1256.142578	165187.843750
1255.042969	164919.234375
1253.943359	165584.859375
1252.842773	165443.515625
1251.743164	165190.890625
1250.642578	164468.125000
1249.541016	165262.765625
1248.440430	165121.562500
1247.338867	164714.765625
1246.238281	164401.171875
1245.136719	164711.812500
1244.034180	164706.937500
1242.932617	164153.015625
1241.831055	164497.531250
1240.728516	164372.468750
1239.625977	164152.203125
1238.522461	164689.218750
1237.419922	164017.890625
1236.316406	163845.390625
1235.213867	163777.156250
1234.110352	164218.671875
1233.005859	163529.781250
1231.902344	164211.218750
1230.797852	163773.875000
1229.693359	163542.703125
1228.588867	163913.656250
1227.484375	163306.875000
1226.379883	163632.484375
1225.274414	164025.812500
1224.168945	163446.453125
1223.063477	163342.187500
1221.958008	163728.562500
1220.851562	162826.296875
1219.746094	163472.515625
1218.639648	162487.015625
1217.533203	163058.500000
1216.425781	163080.859375
1215.319336	163335.828125
1214.211914	163168.437500
1213.104492	163308.140625
1211.997070	162980.546875
1210.889648	162881.000000
1209.781250	162869.484375
1208.672852	163381.359375
1207.564453	163241.171875
1206.456055	163013.078125
1205.347656	162591.140625
1204.238281	164128.390625
1203.128906	162653.812500
1202.019531	162522.859375
1200.910156	162387.437500
1199.800781	162945.906250
1198.690430	163098.750000
1197.580078	162742.593750
1196.469727	163784.734375
1195.359375	163192.203125
1194.249023	163828.765625
1193.137695	163173.421875
1192.026367	162421.562500
1190.915039	162266.078125
1189.803711	162747.125000
1188.691406	162838.968750
1187.580078	162229.328125
1186.467773	162662.890625
1185.355469	163262.609375
1184.242188	161572.390625
1183.129883	162846.046875
1182.016602	162499.718750
1180.903320	162238.859375
1179.790039	162335.109375
1178.676758	162552.531250
1177.562500	162199.750000
1176.449219	161865.062500
1175.334961	162214.812500
1174.219727	161734.406250
1173.105469	162393.546875
1171.990234	161940.187500
1170.875977	161134.953125
1169.760742	162020.250000
1168.644531	161540.281250
1167.529297	161699.125000
1166.413086	161535.265625
1165.297852	161781.406250
1164.181641	161093.500000
1163.064453	161473.968750
1161.948242	161093.093750
1160.831055	160871.265625
1159.713867	161786.421875
1158.596680	160644.875000
1157.479492	160304.671875
1156.362305	160957.703125
1155.244141	160291.031250
1154.125977	160485.437500
1153.007812	160042.640625
1151.888672	160565.578125
1150.770508	160614.562500
1149.651367	159957.453125
1148.532227	160477.875000
1147.413086	160269.968750
1146.293945	160019.687500
1145.173828	159756.109375
1144.053711	159771.656250
1142.933594	159624.250000
1141.813477	159773.687500
1140.693359	159670.953125
1139.572266	159644.093750
1138.451172	158517.703125
1137.330078	159759.843750
1136.208984	159806.531250
1135.086914	159186.703125
1133.965820	159086.375000
1132.843750	159041.781250
1131.721680	158342.203125
1130.599609	158404.656250
1129.476562	158667.515625
1128.353516	158560.656250
1127.230469	158609.671875
1126.107422	158923.531250
1124.984375	158055.562500
1123.860352	158295.968750
1122.737305	158447.296875
1121.613281	158062.515625
1120.488281	157726.812500
1119.364258	157537.953125
1118.239258	158169.437500
1117.115234	157742.750000
1115.990234	157567.312500
1114.864258	157354.156250
1113.739258	157612.000000
1112.613281	157705.390625
1111.487305	157405.703125
1110.361328	157063.937500
1109.235352	156706.750000
1108.108398	157073.187500
1106.982422	157377.359375
1105.855469	156527.781250
1104.728516	156725.453125
1103.600586	157430.906250
1102.473633	157049.609375
1101.345703	157060.843750
1100.217773	156415.984375
1099.089844	157508.765625
1097.960938	157021.343750
1096.833008	157147.750000
1095.704102	156791.250000
1094.575195	156826.828125
1093.446289	157086.015625
1092.316406	157223.343750
1091.187500	156685.562500
1090.057617	156796.359375
1088.927734	156353.984375
1087.796875	156743.484375
1086.666992	156832.062500
1085.536133	156929.453125
1084.405273	157354.000000
1083.274414	156876.515625
1082.143555	156350.593750
1081.011719	157245.640625
1079.879883	156737.500000
1078.748047	156244.984375
1077.616211	156554.312500
1076.484375	156415.296875
1075.351562	156143.859375
1074.218750	156755.406250
1073.085938	156448.687500
1071.953125	156093.531250
1070.820312	157026.796875
1069.686523	156654.000000
1068.552734	156043.187500
1067.418945	156486.468750
1066.284180	156909.734375
1065.150391	156202.218750
1064.015625	156587.906250
1062.880859	156431.484375
1061.746094	155724.406250
1060.611328	156131.984375
1059.475586	155931.656250
1058.339844	156484.328125
1057.204102	156019.875000
1056.068359	156147.562500
1054.932617	156453.437500
1053.795898	155956.218750
1052.659180	156044.250000
1051.522461	156688.609375
1050.385742	156719.296875
1049.248047	155378.203125
1048.110352	156149.796875
1046.972656	155374.046875
1045.834961	155448.859375
1044.697266	155958.593750
1043.558594	156180.406250
1042.419922	156285.765625
1041.281250	155352.578125
1040.142578	155179.250000
1039.003906	156177.953125
1037.864258	155412.046875
1036.724609	155392.359375
1035.584961	155109.437500
1034.445312	155381.468750
1033.304688	155403.437500
1032.165039	154721.656250
1031.024414	154807.281250
1029.883789	155221.593750
1028.742188	153902.578125
1027.601562	154638.921875
1026.459961	154369.640625
1025.318359	154779.328125
1024.176758	153892.671875
1023.034180	154617.500000
1021.892578	154573.843750
1020.750000	154571.750000
1019.607422	154127.718750
1018.463867	154370.703125
1017.321289	154204.609375
1016.177734	153865.812500
1015.034180	153673.625000
1013.890625	153874.953125
1012.747070	153376.843750
1011.602539	154443.437500
1010.458008	154074.296875
1009.313477	153738.046875
1008.168945	153401.906250
1007.024414	153100.828125
1005.878906	153365.265625
1004.733398	153267.281250
1003.587891	153363.531250
1002.442383	153948.500000
1001.295898	153841.703125
1000.149414	154398.000000
999.002930	153634.765625
997.856445	152959.015625
996.709961	153741.859375
995.562500	153687.468750
994.415039	153694.125000
993.267578	153672.437500
992.120117	153228.156250
990.972656	153472.250000
989.824219	152969.390625
988.675781	152392.671875
987.527344	153285.406250
986.378906	153102.734375
985.229492	153316.125000
984.080078	153142.203125
982.930664	153194.546875
981.781250	153172.921875
980.631836	153803.593750
979.481445	153036.203125
978.331055	153414.531250
977.180664	153145.125000
976.030273	152893.187500
974.879883	153017.140625
973.728516	153164.937500
972.577148	152754.609375
971.425781	152709.156250
970.273438	152726.671875
969.122070	152768.031250
967.969727	153030.718750
966.817383	152683.656250
965.665039	153111.093750
964.511719	152972.328125
963.359375	153033.093750
962.206055	152764.312500
961.052734	153067.843750
959.898438	152872.812500
958.745117	153479.531250
957.590820	152641.109375
956.436523	152708.328125
955.282227	152898.937500
954.127930	151929.000000
952.972656	152740.937500
951.817383	152013.765625
950.662109	152228.140625
949.506836	152978.984375
948.350586	152539.843750
947.195312	152732.359375
946.039062	152526.937500
944.882812	153073.921875
943.725586	151941.203125
942.569336	151893.781250
941.412109	152665.281250
940.254883	151904.828125
939.097656	152384.437500
937.939453	152144.734375
936.782227	152218.203125
935.624023	151164.765625
934.465820	151544.843750
933.306641	151607.562500
932.148438	151579.640625
930.989258	151415.812500
929.830078	151806.328125
928.670898	151681.312500
927.510742	151250.203125
926.351562	151036.953125
925.191406	150655.687500
924.031250	150843.390625
922.871094	151569.609375
921.709961	150899.796875
920.548828	151664.500000
919.387695	150409.234375
918.226562	150676.437500
917.065430	151025.312500
915.903320	150575.687500
914.741211	151105.187500
913.579102	150855.750000
912.416992	150027.843750
911.254883	150660.343750
910.091797	150540.109375
908.928711	149646.046875
907.765625	150218.078125
906.601562	150486.906250
905.438477	150278.671875
904.274414	149986.750000
903.110352	149325.531250
901.946289	149890.609375
900.781250	149403.531250
899.617188	149320.156250
898.452148	150011.515625
897.287109	149713.484375
896.121094	149166.703125
894.956055	149626.046875
893.790039	150042.328125
892.624023	149159.156250
891.458008	148653.578125
890.291016	149382.703125
889.125000	149267.265625
887.958008	149297.562500
886.791016	149126.468750
885.623047	148413.593750
884.456055	149270.531250
883.288086	148191.796875
882.120117	148177.265625
880.952148	148443.093750
879.783203	148263.750000
878.615234	149256.796875
877.446289	148245.328125
876.277344	148983.531250
875.107422	148874.750000
873.938477	149462.906250
872.768555	148608.140625
871.598633	148950.375000
870.428711	148563.906250
869.257812	148901.718750
868.087891	148923.328125
866.916992	148761.265625
865.746094	148889.625000
864.575195	149067.015625
863.403320	148902.859375
862.231445	149560.265625
861.059570	149340.609375
859.887695	149142.359375
858.715820	149038.000000
857.542969	149230.062500
856.370117	149185.406250
855.197266	148341.484375
854.024414	149198.406250
852.850586	149251.781250
851.676758	148634.093750
850.503906	149090.062500
849.329102	148990.078125
848.155273	150146.250000
846.980469	149622.500000
845.805664	149499.046875
844.630859	148654.281250
843.456055	148845.890625
842.280273	149388.390625
841.105469	149318.203125
839.929688	149477.687500
838.753906	149390.484375
837.577148	149537.125000
836.400391	149016.406250
835.224609	150722.578125
834.046875	149895.921875
832.870117	149649.406250
831.693359	150222.656250
830.515625	149819.031250
829.337891	149778.546875
828.160156	149685.015625
826.981445	150054.093750
825.803711	149625.312500
824.625000	149586.984375
823.446289	149334.468750
822.266602	149815.687500
821.087891	149603.500000
819.908203	149991.218750
818.728516	149353.093750
817.548828	149931.390625
816.368164	149649.390625
815.188477	149606.828125
814.007812	149604.500000
812.827148	149640.281250
811.645508	149836.937500
810.464844	149352.000000
809.283203	149279.859375
808.101562	149417.203125
806.919922	149601.031250
805.737305	149791.125000
804.554688	149046.531250
803.373047	149974.453125
802.189453	149614.781250
801.006836	149692.703125
799.823242	148971.890625
798.640625	149482.953125
797.457031	149723.453125
796.272461	149053.703125
795.088867	149207.625000
793.904297	149507.140625
792.719727	149760.093750
791.535156	149257.515625
790.350586	149601.140625
789.165039	148733.828125
787.979492	149695.343750
786.793945	148490.953125
785.608398	148960.921875
784.421875	148948.015625
783.236328	149440.906250
782.049805	147999.328125
780.862305	149309.578125
779.675781	148919.562500
778.488281	148868.750000
777.300781	148883.203125
776.113281	148415.593750
774.925781	148682.671875
773.737305	149147.468750
772.549805	149208.125000
771.361328	148711.312500
770.171875	148141.078125
768.983398	148674.984375
767.793945	147854.765625
766.604492	148979.171875
765.415039	148526.968750
764.225586	148490.953125
763.035156	148446.546875
761.845703	148358.046875
760.655273	148109.968750
759.463867	148160.125000
758.273438	147792.500000
757.082031	147977.000000
755.890625	148142.546875
754.699219	148127.593750
753.507812	148238.484375
752.315430	147822.921875
751.123047	147516.546875
749.930664	148113.859375
748.738281	148147.109375
747.544922	148130.015625
746.351562	148452.390625
745.158203	147980.640625
743.964844	147672.437500
742.771484	147538.156250
741.577148	147575.609375
740.382812	148234.781250
739.188477	147968.593750
737.994141	147733.890625
736.798828	147440.671875
735.603516	147802.312500
734.408203	147337.687500
733.212891	148272.140625
732.016602	147475.171875
730.821289	148614.093750
729.625000	147733.750000
728.428711	147798.171875
727.231445	147639.046875
726.035156	147682.562500
724.837891	147644.609375
723.640625	147786.234375
722.442383	147712.781250
721.245117	147142.609375
720.046875	147766.265625
718.848633	148581.640625
717.650391	148015.765625
716.451172	147848.453125
715.252930	147777.109375
714.053711	148197.812500
712.854492	147661.593750
711.654297	148646.921875
710.455078	147735.750000
709.254883	147764.453125
708.054688	147214.109375
706.853516	147986.343750
705.653320	147681.828125
704.452148	147518.984375
703.250977	147714.187500
702.049805	147794.843750
700.847656	147752.734375
699.646484	147899.906250
698.444336	147593.625000
697.242188	147146.062500
696.039062	147630.062500
694.836914	148149.187500
693.633789	147275.718750
692.430664	148218.593750
691.227539	148267.812500
690.023438	147502.781250
688.819336	148293.468750
687.615234	148155.750000
686.411133	148287.953125
685.207031	147635.546875
684.001953	148213.921875
682.796875	148335.640625
681.591797	148154.453125
680.386719	147705.781250
679.180664	147694.796875
677.974609	147880.750000
676.768555	148029.328125
675.562500	147920.859375
674.356445	147845.593750
673.149414	147393.296875
671.942383	147635.031250
670.735352	147462.484375
669.527344	148124.421875
668.320312	148090.531250
667.112305	148141.515625
665.904297	147915.187500
664.695312	147581.359375
663.487305	147698.578125
662.278320	148500.312500
661.069336	147788.125000
659.860352	147638.531250
658.650391	147311.218750
657.440430	147996.671875
656.230469	147766.515625
655.020508	147354.656250
653.810547	147653.453125
652.599609	147619.640625
651.388672	147185.296875
650.177734	146800.656250
648.966797	147619.421875
647.754883	147294.656250
646.542969	147386.781250
645.331055	147095.171875
644.119141	146869.671875
642.906250	149413.500000
641.694336	146950.796875
640.481445	146537.859375
639.267578	146739.203125
638.054688	146959.000000
636.840820	146568.937500
635.626953	146395.265625
634.413086	146285.500000
633.199219	146737.859375
631.984375	145819.046875
630.769531	146081.953125
629.554688	145949.671875
628.339844	146654.765625
627.124023	146259.109375
625.909180	146780.843750
624.693359	146481.937500
623.476562	145854.218750
622.260742	146702.515625
621.043945	147047.015625
619.827148	147403.687500
618.610352	147094.656250
617.393555	147465.546875
616.175781	147421.500000
614.958008	147110.562500
613.740234	147356.015625
612.522461	147568.531250
611.303711	147255.656250
610.084961	147137.796875
608.866211	146882.546875
607.647461	146637.625000
606.427734	147048.937500
605.208984	146777.421875
603.989258	146417.859375
602.768555	146158.859375
601.548828	146377.328125
600.328125	146325.296875
599.107422	145966.062500
597.886719	145889.546875
596.666016	145725.031250
595.444336	145949.484375
594.222656	145713.359375
593.000977	146134.140625
591.779297	145533.906250
590.556641	146042.515625
589.334961	145957.859375
588.112305	145024.687500
586.888672	145477.890625
585.666016	146503.203125
584.442383	145936.234375
583.218750	145062.984375
581.995117	145587.312500
580.770508	145253.625000
579.546875	145920.640625
578.322266	145462.484375
577.097656	145731.156250
575.872070	146356.875000
574.647461	145223.468750
573.421875	145353.281250
572.196289	145232.171875
570.969727	146081.812500
569.744141	145607.843750
568.517578	145109.609375
567.291016	146050.484375
566.064453	145540.093750
564.836914	145274.390625
563.609375	145375.437500
562.381836	145276.843750
561.154297	145787.109375
559.926758	145330.156250
558.698242	144879.468750
557.469727	145973.593750
556.241211	145411.031250
555.012695	145164.000000
553.783203	144530.593750
552.553711	145322.968750
551.324219	145411.546875
550.094727	145156.531250
548.864258	144995.109375
547.633789	144380.593750
546.403320	144371.734375
545.172852	144405.531250
543.941406	144473.828125
542.710938	143776.593750
541.479492	144125.125000
540.247070	144443.078125
539.015625	143742.156250
537.783203	143487.875000
536.550781	143783.437500
535.318359	143291.921875
534.085938	143804.375000
532.852539	143134.609375
531.619141	143134.031250
530.385742	142965.234375
529.152344	142760.015625
527.917969	142508.265625
526.683594	142347.765625
525.449219	142462.734375
524.214844	142529.062500
522.979492	142415.187500
521.744141	142347.890625
520.508789	142114.687500
519.273438	142755.609375
518.037109	142920.890625
516.801758	142394.421875
515.565430	142369.640625
514.328125	141683.734375
513.091797	142176.546875
511.854492	141725.359375
510.617188	142343.234375
509.379883	142372.984375
508.142578	142121.968750
506.904297	141780.156250
505.666016	142332.906250
504.427734	142629.093750
503.189453	142394.328125
501.950195	142740.812500
500.710938	142701.796875
499.471680	142600.265625
498.232422	142274.906250
496.992188	142492.078125
495.751953	142676.906250
494.511719	142442.390625
493.271484	142338.953125
492.030273	142445.093750
490.790039	142448.453125
489.548828	142125.515625
488.306641	142269.890625
487.065430	142506.812500
485.823242	141916.281250
484.581055	141988.140625
483.338867	142007.640625
482.095703	142236.359375
480.853516	142573.593750
479.610352	142130.406250
478.367188	142628.375000
477.123047	142553.218750
475.879883	142252.968750
474.635742	141824.203125
473.391602	141435.781250
472.146484	142548.093750
470.902344	141884.500000
469.657227	141807.515625
468.412109	142425.218750
467.166016	142295.953125
465.920898	142321.265625
464.674805	142019.500000
463.428711	141776.015625
462.182617	142150.406250
460.935547	141427.671875
459.688477	141691.687500
458.441406	141867.406250
457.194336	141894.718750
455.946289	141447.093750
454.699219	142003.406250
453.451172	141736.187500
452.202148	141789.531250
450.954102	140889.687500
449.705078	140548.750000
448.456055	141224.765625
447.207031	140711.765625
445.958008	140657.171875
444.708008	140510.546875
443.458008	140529.984375
442.208008	140183.468750
440.957031	140524.843750
439.707031	140058.500000
438.456055	139580.343750
437.205078	139911.625000
435.953125	140552.453125
434.702148	139840.734375
433.450195	139612.578125
432.198242	140105.312500
430.945312	139923.109375
429.693359	138898.656250
428.440430	139361.296875
427.187500	139428.703125
425.934570	139139.015625
424.680664	139150.578125
423.426758	139355.562500
422.172852	139596.343750
420.918945	140046.328125
419.664062	140545.953125
418.410156	140308.140625
417.155273	140962.906250
415.899414	141378.406250
414.644531	142773.515625
413.388672	142609.109375
412.132812	142187.953125
410.876953	141717.187500
409.620117	141383.906250
408.364258	141237.750000
407.107422	140290.015625
405.849609	139873.640625
404.592773	139061.734375
403.334961	138774.953125
402.077148	138573.750000
400.819336	138682.625000
399.561523	138392.093750
398.302734	138546.656250
397.043945	139003.031250
395.785156	138118.828125
394.525391	137836.546875
393.266602	138554.796875
392.006836	138294.343750
390.747070	137381.171875
389.486328	137630.890625
388.226562	137715.875000
386.965820	137913.859375
385.705078	137693.390625
384.443359	137431.375000
383.182617	137228.921875
381.920898	137973.750000
380.659180	137499.812500
379.396484	136964.656250
378.134766	136863.406250
376.872070	137580.000000
375.609375	137078.765625
374.346680	136854.812500
373.083008	136743.750000
371.819336	136644.593750
370.555664	136224.984375
369.291992	136537.359375
368.027344	136181.203125
366.762695	136303.640625
365.498047	135753.921875
364.233398	136157.031250
362.968750	135575.921875
361.703125	135856.406250
360.437500	136041.968750
359.170898	135317.031250
357.905273	135243.953125
356.638672	135162.984375
355.372070	134466.250000
354.105469	134642.000000
352.837891	134730.859375
351.571289	134523.781250
350.303711	134748.703125
349.035156	134701.406250
347.767578	133571.781250
346.499023	134699.515625
345.230469	133274.671875
343.961914	133872.000000
342.692383	133401.328125
341.423828	133502.031250
340.154297	133352.593750
338.883789	133533.984375
337.614258	132774.343750
336.343750	133432.046875
335.073242	133343.718750
333.802734	133255.406250
332.532227	133403.171875
331.260742	132996.265625
329.989258	133381.937500
328.717773	133071.515625
327.445312	133004.921875
326.173828	132706.468750
324.901367	132437.593750
323.627930	132846.531250
322.355469	133223.890625
321.082031	133237.812500
319.808594	132350.578125
318.535156	132366.625000
317.261719	132598.531250
315.987305	132463.406250
314.712891	132685.390625
313.438477	133403.500000
312.164062	132864.328125
310.888672	133262.531250
309.613281	132752.968750
308.337891	133135.359375
307.061523	133535.234375
305.786133	134220.984375
304.509766	134681.218750
303.233398	135650.453125
301.956055	136640.843750
300.678711	136548.265625
299.402344	137285.593750
298.124023	136891.546875
296.846680	138761.375000
295.568359	140029.937500
294.290039	141078.968750
293.011719	140418.515625
291.733398	138575.500000
290.454102	135937.609375
289.174805	133795.171875
287.895508	132132.265625
286.616211	132109.031250
285.335938	130527.140625
284.055664	130885.015625
282.775391	129587.054688
281.494141	129267.578125
280.213867	129018.484375
278.932617	129130.484375
277.651367	127927.468750
276.369141	128455.093750
275.087891	128348.687500
273.805664	127749.000000
272.523438	127677.843750
271.240234	127285.101562
269.958008	127748.007812
268.674805	127550.234375
267.390625	127307.718750
266.107422	126767.304688
264.823242	126953.421875
263.539062	126678.046875
262.254883	126486.468750
260.970703	126049.750000
259.685547	126576.343750
258.400391	126575.523438
257.115234	126144.851562
255.830078	126103.265625
254.543945	126401.945312
253.257812	125804.351562
251.971680	126614.109375
250.684570	126148.835938
249.398438	125996.515625
248.111328	125966.625000
246.824219	126853.390625
245.536133	126763.148438
244.248047	126218.656250
242.960938	125439.515625
241.671875	124338.531250
240.383789	124724.156250
239.094727	125253.179688
237.805664	124885.960938
236.516602	125222.765625
235.227539	126255.437500
233.937500	126491.046875
232.647461	127846.710938
231.357422	130362.484375
230.066406	130459.609375
228.775391	131126.125000
227.485352	132435.312500
226.193359	131757.500000
224.902344	128207.296875
223.610352	125840.953125
222.318359	124255.328125
221.026367	123169.445312
219.733398	123064.640625
218.441406	122729.742188
217.148438	122286.687500
215.854492	122332.890625
214.561523	121930.656250
213.267578	121596.203125
211.973633	120894.781250
210.679688	121478.195312
209.384766	120941.218750
208.090820	120587.882812
206.795898	120250.117188
205.500000	120066.890625
204.205078	119698.460938
202.909180	119594.507812
201.613281	119122.132812
200.317383	118277.687500
199.020508	119020.593750
197.723633	118855.132812
196.426758	118541.296875
195.129883	118385.617188
193.832031	118048.859375
192.534180	118012.765625
191.236328	117342.968750
189.938477	117075.914062
188.639648	117505.960938
187.341797	117200.460938
186.042969	116596.757812
184.743164	116707.187500
183.444336	115855.609375
182.144531	116716.320312
180.844727	116382.390625
179.543945	116237.023438
178.244141	116478.117188
176.943359	116069.445312
175.642578	116095.242188
174.340820	115496.570312
173.040039	115827.890625
171.738281	115156.507812
170.435547	115985.101562
169.133789	115657.593750
167.831055	115512.562500
166.528320	115856.960938
165.225586	114683.468750
163.922852	115052.828125
162.619141	114211.750000
161.315430	114197.507812
160.011719	114658.757812
158.708008	114019.500000
157.403320	114210.359375
156.098633	113510.109375
154.793945	113101.320312
153.488281	113171.554688
152.182617	112387.625000
150.876953	112327.757812
149.571289	112298.531250
148.265625	111746.796875
146.958984	111530.148438
145.652344	111889.468750
144.345703	111776.164062
143.038086	111529.023438
141.730469	111276.234375
140.422852	111295.007812
139.115234	111300.390625
137.806641	110357.875000
136.498047	110157.070312
135.189453	109589.554688
133.880859	109136.851562
132.571289	108264.203125
131.262695	106538.460938
129.952148	105313.500000
128.642578	104617.656250
127.332031	103391.609375
126.021484	101250.312500
124.710938	99735.460938
123.400391	97534.648438
122.088867	96318.515625
120.777344	93696.007812
119.465820	90325.476562
