#Wave		#Intensity
1999.057617	192250.890625
1998.089844	192160.468750
1997.122070	192005.593750
1996.154297	191938.546875
1995.186523	192325.953125
1994.217773	192362.140625
1993.249023	191923.375000
1992.280273	192387.984375
1991.311523	191624.250000
1990.341797	191838.500000
1989.373047	192841.921875
1988.403320	192081.062500
1987.433594	192436.906250
1986.463867	192550.296875
1985.494141	192521.875000
1984.524414	193199.562500
1983.553711	192781.953125
1982.583008	191962.609375
1981.613281	191978.078125
1980.641602	193116.312500
1979.670898	192482.703125
1978.700195	192675.671875
1977.728516	191687.156250
1976.756836	192719.109375
1975.785156	192649.468750
1974.813477	192816.500000
1973.841797	192705.703125
1972.869141	193839.593750
1971.897461	193666.921875
1970.924805	193478.890625
1969.952148	192144.562500
1968.979492	193308.562500
1968.005859	192786.640625
1967.033203	193449.171875
1966.059570	193271.578125
1965.085938	193877.281250
1964.112305	192510.843750
1963.138672	192831.515625
1962.165039	192982.640625
1961.190430	192530.656250
1960.215820	193769.671875
1959.242188	192925.187500
1958.266602	193896.937500
1957.291992	194422.140625
1956.317383	193657.437500
1955.341797	194251.687500
1954.366211	194402.312500
1953.390625	193919.875000
1952.415039	193388.937500
1951.439453	194587.375000
1950.463867	194135.875000
1949.487305	193157.000000
1948.510742	193799.203125
1947.534180	193588.703125
1946.557617	193580.484375
1945.580078	194652.187500
1944.603516	193351.640625
1943.625977	193990.656250
1942.648438	193882.578125
1941.670898	194188.812500
1940.693359	194269.937500
1939.715820	194328.000000
1938.737305	193598.812500
1937.758789	194175.750000
1936.780273	194093.250000
1935.801758	194225.375000
1934.823242	193611.609375
1933.844727	193613.515625
1932.865234	193758.390625
1931.885742	193961.921875
1930.906250	193948.421875
1929.926758	194868.937500
1928.947266	194281.187500
1927.966797	193938.531250
1926.986328	193853.593750
1926.006836	193493.265625
1925.026367	193701.640625
1924.044922	194684.921875
1923.064453	194148.750000
1922.083008	194122.421875
1921.102539	194149.609375
1920.121094	193573.031250
1919.139648	194229.406250
1918.157227	194437.343750
1917.175781	193934.828125
1916.193359	193870.343750
1915.211914	193408.812500
1914.229492	193899.187500
1913.246094	193954.312500
1912.263672	193879.656250
1911.281250	194334.062500
1910.297852	193941.484375
1909.314453	193917.703125
1908.331055	193787.156250
1907.347656	193427.890625
1906.363281	194036.953125
1905.379883	193482.125000
1904.395508	193631.140625
1903.411133	193455.000000
1902.426758	193570.953125
1901.442383	193290.765625
1900.458008	192893.890625
1899.472656	193570.796875
1898.487305	193701.828125
1897.501953	193541.046875
1896.516602	193857.218750
1895.531250	194173.281250
1894.544922	193563.609375
1893.559570	194155.953125
1892.573242	194527.546875
1891.586914	193712.796875
1890.599609	194178.078125
1889.613281	192864.546875
1888.625977	193572.984375
1887.639648	193321.234375
1886.652344	193335.468750
1885.665039	193701.625000
1884.676758	193247.453125
1883.689453	194415.812500
1882.701172	194389.328125
1881.713867	194519.718750
1880.725586	193278.937500
1879.736328	193485.343750
1878.748047	193658.781250
1877.759766	193212.687500
1876.770508	194141.953125
1875.781250	193622.625000
1874.791992	193896.968750
1873.802734	193339.968750
1872.812500	193836.546875
1871.823242	193628.281250
1870.833008	192940.265625
1869.842773	193406.343750
1868.852539	193693.000000
1867.862305	193386.437500
1866.871094	193584.671875
1865.880859	193394.281250
1864.889648	192091.484375
1863.898438	193742.578125
1862.907227	193933.015625
1861.915039	193828.390625
1860.923828	193275.078125
1859.931641	193528.484375
1858.939453	193990.953125
1857.947266	193951.859375
1856.955078	194000.937500
1855.961914	193730.140625
1854.969727	194073.859375
1853.976562	194339.406250
1852.983398	193484.640625
1851.990234	193000.156250
1850.997070	193477.093750
1850.002930	193153.781250
1849.008789	193668.250000
1848.014648	194718.250000
1847.020508	194668.968750
1846.026367	193905.656250
1845.032227	194497.531250
1844.037109	193216.750000
1843.042969	193494.406250
1842.047852	193583.531250
1841.051758	193808.265625
1840.056641	193934.953125
1839.061523	193705.015625
1838.065430	194303.671875
1837.069336	194126.453125
1836.073242	194549.109375
1835.077148	194015.562500
1834.081055	193906.203125
1833.083984	193967.453125
1832.086914	194194.187500
1831.090820	193989.546875
1830.092773	194123.421875
1829.095703	194402.640625
1828.098633	194085.265625
1827.100586	193073.875000
1826.102539	193856.687500
1825.104492	194416.265625
1824.106445	193598.171875
1823.108398	194347.906250
1822.109375	194659.234375
1821.111328	193841.500000
1820.112305	194545.718750
1819.113281	193385.468750
1818.113281	193148.812500
1817.114258	193952.812500
1816.114258	193846.171875
1815.115234	193694.546875
1814.115234	194180.500000
1813.115234	193526.421875
1812.114258	194831.953125
1811.114258	193990.562500
1810.113281	193938.937500
1809.112305	194019.718750
1808.111328	194232.828125
1807.110352	192987.593750
1806.109375	194107.046875
1805.107422	193760.875000
1804.105469	194285.812500
1803.103516	193405.718750
1802.101562	194020.328125
1801.099609	193961.218750
1800.096680	193687.656250
1799.094727	193493.984375
1798.091797	193225.562500
1797.088867	193258.843750
1796.085938	193900.203125
1795.082031	193689.140625
1794.079102	193114.421875
1793.075195	193057.984375
1792.071289	193820.921875
1791.067383	193146.859375
1790.063477	192873.843750
1789.058594	193437.265625
1788.053711	193231.468750
1787.049805	193899.109375
1786.044922	192844.953125
1785.039062	193077.125000
1784.034180	192684.984375
1783.028320	192588.875000
1782.023438	192962.656250
1781.017578	192737.265625
1780.011719	192193.828125
1779.004883	192873.078125
1777.999023	192237.890625
1776.992188	193147.875000
1775.985352	192132.875000
1774.978516	192814.109375
1773.971680	192229.000000
1772.964844	191773.156250
1771.957031	191707.078125
1770.950195	192769.984375
1769.942383	192624.359375
1768.934570	191742.109375
1767.925781	191705.828125
1766.917969	192547.281250
1765.909180	191834.062500
1764.900391	191535.015625
1763.891602	191843.218750
1762.882812	191281.625000
1761.874023	191285.046875
1760.864258	191967.125000
1759.854492	191116.031250
1758.844727	191248.203125
1757.834961	191311.015625
1756.825195	191071.828125
1755.815430	191758.250000
1754.804688	190957.390625
1753.793945	190995.437500
1752.783203	190672.343750
1751.772461	191041.781250
1750.760742	191280.046875
1749.750000	190788.953125
1748.738281	190518.000000
1747.726562	190504.140625
1746.714844	190865.828125
1745.703125	191765.906250
1744.690430	191198.562500
1743.678711	190401.750000
1742.666016	190619.968750
1741.653320	190699.859375
1740.640625	191110.453125
1739.626953	190899.031250
1738.614258	190801.171875
1737.600586	190224.765625
1736.586914	189937.140625
1735.573242	189965.234375
1734.558594	190474.093750
1733.544922	190127.375000
1732.530273	190355.046875
1731.515625	191124.750000
1730.500977	190457.796875
1729.486328	190333.000000
1728.471680	189892.984375
1727.456055	190445.500000
1726.440430	190520.187500
1725.424805	190006.500000
1724.409180	189840.015625
1723.393555	189252.796875
1722.376953	190201.000000
1721.360352	189515.515625
1720.344727	190310.843750
1719.328125	189637.875000
1718.310547	189825.609375
1717.293945	190846.593750
1716.276367	191203.625000
1715.258789	190150.046875
1714.241211	190057.468750
1713.223633	189972.265625
1712.206055	190176.906250
1711.187500	189944.375000
1710.169922	190033.531250
1709.151367	189828.093750
1708.132812	190633.859375
1707.113281	189618.625000
1706.094727	189643.968750
1705.075195	190083.828125
1704.055664	190013.421875
1703.036133	189741.953125
1702.016602	189769.671875
1700.997070	189147.796875
1699.976562	189829.953125
1698.956055	189122.515625
1697.935547	190642.281250
1696.915039	189036.000000
1695.894531	189852.343750
1694.873047	190293.765625
1693.852539	189339.578125
1692.831055	190304.718750
1691.809570	190197.625000
1690.788086	189182.765625
1689.765625	189496.656250
1688.743164	189678.359375
1687.721680	188991.812500
1686.699219	189518.265625
1685.676758	189800.078125
1684.653320	189434.046875
1683.630859	189473.812500
1682.607422	189853.187500
1681.583984	190115.156250
1680.560547	188896.859375
1679.537109	189476.359375
1678.512695	188646.812500
1677.488281	189191.968750
1676.464844	189146.234375
1675.440430	189005.343750
1674.415039	188386.281250
1673.390625	189138.421875
1672.365234	188402.453125
1671.340820	188793.375000
1670.315430	188696.531250
1669.290039	189155.515625
1668.263672	188771.015625
1667.238281	188727.796875
1666.211914	188029.187500
1665.185547	188865.531250
1664.159180	188522.718750
1663.132812	187666.218750
1662.105469	187781.453125
1661.079102	187794.406250
1660.051758	187792.750000
1659.024414	188236.406250
1657.997070	187336.875000
1656.968750	188330.203125
1655.941406	187562.281250
1654.913086	187524.156250
1653.884766	187126.203125
1652.856445	186961.750000
1651.828125	187246.968750
1650.798828	187004.765625
1649.769531	187574.125000
1648.740234	186306.843750
1647.710938	187123.828125
1646.681641	186401.000000
1645.652344	187545.421875
1644.622070	186742.656250
1643.591797	186568.750000
1642.561523	186113.406250
1641.531250	186218.671875
1640.500977	185605.875000
1639.469727	186055.562500
1638.438477	185799.437500
1637.408203	185642.812500
1636.375977	184763.890625
1635.344727	185545.390625
1634.313477	184691.015625
1633.281250	185852.609375
1632.249023	185112.312500
1631.216797	185578.328125
1630.184570	184729.359375
1629.151367	185016.125000
1628.119141	184583.875000
1627.085938	184340.531250
1626.052734	184353.765625
1625.019531	184679.062500
1623.985352	184489.031250
1622.952148	183706.562500
1621.917969	183579.625000
1620.883789	183481.734375
1619.849609	184495.718750
1618.815430	182991.203125
1617.780273	182946.593750
1616.745117	182684.593750
1615.709961	182787.375000
1614.674805	183278.937500
1613.639648	183082.171875
1612.604492	183580.718750
1611.568359	183297.062500
1610.532227	182509.140625
1609.496094	183728.937500
1608.459961	182851.937500
1607.423828	182344.281250
1606.386719	182577.125000
1605.349609	182580.828125
1604.312500	182307.281250
1603.275391	182053.125000
1602.238281	183037.671875
1601.200195	181988.375000
1600.163086	182339.015625
1599.125000	182166.890625
1598.086914	182343.984375
1597.047852	182701.593750
1596.009766	182387.437500
1594.970703	182619.734375
1593.931641	181624.703125
1592.892578	181178.562500
1591.853516	181803.031250
1590.814453	181664.843750
1589.774414	181885.000000
1588.734375	182073.828125
1587.694336	181370.765625
1586.654297	181763.875000
1585.614258	181950.187500
1584.573242	181266.718750
1583.532227	181928.640625
1582.492188	181399.109375
1581.450195	181287.578125
1580.409180	181514.578125
1579.368164	181112.609375
1578.326172	181344.343750
1577.284180	181273.656250
1576.242188	180490.468750
1575.200195	181732.000000
1574.157227	180519.703125
1573.115234	181362.750000
1572.072266	181423.937500
1571.029297	180974.546875
1569.985352	181054.953125
1568.942383	181446.796875
1567.898438	181366.562500
1566.855469	180165.359375
1565.811523	181515.062500
1564.767578	181197.796875
1563.722656	180990.734375
1562.678711	181384.531250
1561.633789	181620.234375
1560.588867	181413.203125
1559.543945	181478.937500
1558.499023	181410.718750
1557.453125	180940.750000
1556.407227	180877.406250
1555.361328	181182.234375
1554.315430	180172.359375
1553.269531	181177.375000
1552.223633	181106.828125
1551.176758	180434.328125
1550.129883	180137.031250
1549.083008	180026.109375
1548.036133	179984.437500
1546.989258	180544.359375
1545.941406	180607.625000
1544.893555	180432.218750
1543.845703	180777.000000
1542.797852	180763.828125
1541.750000	180411.984375
1540.701172	180148.500000
1539.652344	180504.968750
1538.603516	180131.890625
1537.554688	180569.250000
1536.505859	180506.046875
1535.456055	180087.875000
1534.407227	180398.750000
1533.357422	180440.375000
1532.307617	180655.812500
1531.256836	180471.203125
1530.207031	179934.343750
1529.156250	179959.343750
1528.105469	179848.687500
1527.054688	179887.953125
1526.003906	179986.656250
1524.953125	179181.593750
1523.901367	178674.046875
1522.849609	179100.968750
1521.797852	179770.171875
1520.746094	179616.859375
1519.694336	179192.718750
1518.641602	179859.156250
1517.588867	179085.953125
1516.536133	179569.296875
1515.483398	178824.890625
1514.430664	179125.296875
1513.376953	178378.859375
1512.323242	177981.531250
1511.269531	178179.875000
1510.215820	178008.062500
1509.162109	178222.921875
1508.107422	177733.390625
1507.053711	177730.078125
1505.999023	177966.187500
1504.944336	176960.234375
1503.888672	177746.156250
1502.833984	177292.640625
1501.778320	177718.140625
1500.722656	177631.890625
1499.666992	177242.562500
1498.611328	176673.421875
1497.555664	176622.890625
1496.499023	176555.796875
1495.442383	176715.890625
1494.385742	176573.093750
1493.329102	175682.843750
1492.271484	176018.000000
1491.214844	176915.812500
1490.157227	176061.421875
1489.099609	175427.156250
1488.041992	175568.296875
1486.983398	174771.281250
1485.925781	175900.015625
1484.867188	176022.078125
1483.808594	175827.609375
1482.750000	174941.375000
1481.691406	175219.328125
1480.631836	175343.765625
1479.572266	174644.500000
1478.512695	174953.015625
1477.453125	175049.093750
1476.393555	174123.796875
1475.333008	175090.187500
1474.273438	174568.390625
1473.212891	174626.718750
1472.152344	173977.906250
1471.090820	174182.421875
1470.030273	173823.703125
1468.968750	173941.000000
1467.907227	173215.015625
1466.845703	173315.859375
1465.784180	174422.046875
1464.721680	172940.687500
1463.660156	173342.781250
1462.597656	172859.906250
1461.535156	173494.781250
1460.472656	172395.703125
1459.409180	172776.406250
1458.345703	173154.625000
1457.283203	173763.109375
1456.219727	172636.531250
1455.155273	171987.468750
1454.091797	172722.687500
1453.027344	172386.312500
1451.963867	171629.562500
1450.899414	171540.078125
1449.833984	172152.734375
1448.769531	172462.296875
1447.704102	171903.218750
1446.639648	171550.859375
1445.574219	172057.453125
1444.507812	172024.250000
1443.442383	172347.593750
1442.375977	172077.484375
1441.310547	171329.093750
1440.244141	171080.343750
1439.177734	171070.750000
1438.110352	171522.843750
1437.043945	171346.796875
1435.976562	171555.015625
1434.909180	171325.140625
1433.841797	170493.468750
1432.773438	170874.984375
1431.706055	171436.593750
1430.637695	170511.718750
1429.569336	170626.218750
1428.500977	170759.375000
1427.432617	170965.000000
1426.363281	170590.484375
1425.294922	170765.656250
1424.225586	170262.703125
1423.156250	169301.750000
1422.085938	170468.031250
1421.016602	170608.015625
1419.946289	170448.875000
1418.875977	169483.875000
1417.805664	169665.968750
1416.735352	169563.109375
1415.664062	169306.187500
1414.593750	168998.000000
1413.522461	168918.640625
1412.451172	168997.968750
1411.379883	169613.875000
1410.307617	169795.671875
1409.235352	169471.312500
1408.164062	170098.437500
1407.090820	169300.843750
1406.018555	168223.812500
1404.946289	168890.421875
1403.873047	169416.968750
1402.799805	168340.484375
1401.726562	168566.453125
1400.653320	168123.953125
1399.580078	168021.546875
1398.505859	168580.343750
1397.431641	168084.515625
1396.357422	169064.296875
1395.283203	168228.828125
1394.208008	167942.687500
1393.133789	167777.593750
1392.058594	167252.078125
1390.983398	167787.015625
1389.908203	167863.765625
1388.832031	167243.218750
1387.756836	167382.781250
1386.680664	166943.750000
1385.604492	167273.781250
1384.528320	167227.437500
1383.451172	167143.937500
1382.375000	166644.875000
1381.297852	168158.593750
1380.220703	166937.703125
1379.143555	167056.171875
1378.065430	166262.796875
1376.988281	166805.843750
1375.910156	165961.765625
1374.832031	166286.671875
1373.753906	165980.859375
1372.674805	165985.750000
1371.596680	166558.453125
1370.517578	166336.140625
1369.438477	165775.656250
1368.359375	165479.437500
1367.279297	165560.796875
1366.200195	165894.531250
1365.120117	166586.968750
1364.040039	165307.046875
1362.959961	165860.468750
1361.878906	164812.500000
1360.798828	165141.406250
1359.717773	165472.484375
1358.636719	165296.984375
1357.555664	164968.937500
1356.473633	165133.406250
1355.392578	165355.593750
1354.310547	165090.078125
1353.228516	164438.812500
1352.146484	164561.656250
1351.063477	165839.265625
1349.981445	164724.031250
1348.898438	165216.140625
1347.815430	164904.734375
1346.732422	165126.593750
1345.649414	164515.312500
1344.565430	164748.671875
1343.481445	164151.515625
1342.397461	164820.750000
1341.313477	164687.265625
1340.229492	164839.703125
1339.144531	164159.937500
1338.059570	164897.796875
1336.974609	164089.218750
1335.889648	164137.968750
1334.804688	164451.578125
1333.718750	164993.062500
1332.632812	163471.203125
1331.546875	164572.093750
1330.460938	164645.984375
1329.375000	164393.062500
1328.288086	163608.687500
1327.201172	163859.828125
1326.114258	164743.406250
1325.027344	163931.781250
1323.940430	164037.859375
1322.852539	163884.125000
1321.764648	163836.156250
1320.676758	163615.843750
1319.588867	164048.140625
1318.500977	163265.046875
1317.412109	163139.109375
1316.324219	162335.781250
1315.235352	163293.734375
1314.145508	163282.609375
1313.056641	167441.750000
1311.966797	169426.296875
1310.876953	166686.109375
1309.787109	167185.906250
1308.697266	169313.875000
1307.607422	168372.953125
1306.516602	163764.109375
1305.425781	161478.968750
1304.334961	161523.140625
1303.244141	161507.703125
1302.153320	161160.078125
1301.061523	160576.640625
1299.969727	161049.171875
1298.877930	161097.921875
1297.786133	161428.250000
1296.694336	160609.390625
1295.601562	160527.734375
1294.508789	160498.718750
1293.416016	159293.843750
1292.323242	159738.515625
1291.230469	159803.390625
1290.136719	159143.453125
1289.042969	159498.734375
1287.949219	159671.031250
1286.855469	158954.312500
1285.760742	158301.828125
1284.666992	158805.453125
1283.572266	158874.953125
1282.477539	158864.484375
1281.381836	159048.078125
1280.287109	157846.000000
1279.191406	158013.718750
1278.095703	158742.734375
1277.000000	158079.765625
1275.904297	158060.281250
1274.808594	157849.234375
1273.711914	156723.875000
1272.615234	157124.125000
1271.518555	157252.984375
1270.421875	157069.546875
1269.324219	157474.062500
1268.226562	156520.609375
1267.129883	156886.343750
1266.031250	156990.031250
1264.933594	156622.343750
1263.835938	156814.812500
1262.737305	156358.515625
1261.638672	156673.843750
1260.540039	156037.968750
1259.441406	156139.390625
1258.341797	156249.859375
1257.242188	156041.906250
1256.142578	155547.546875
1255.042969	155419.359375
1253.943359	155529.843750
1252.842773	155363.062500
1251.743164	154655.593750
1250.642578	154775.218750
1249.541016	153825.078125
1248.440430	155518.468750
1247.338867	154223.421875
1246.238281	155230.578125
1245.136719	155095.781250
1244.034180	154191.796875
1242.932617	154286.359375
1241.831055	154494.296875
1240.728516	154316.625000
1239.625977	154336.265625
1238.522461	153267.703125
1237.419922	152992.859375
1236.316406	153749.234375
1235.213867	154247.046875
1234.110352	152644.593750
1233.005859	154139.015625
1231.902344	153723.812500
1230.797852	153322.343750
1229.693359	153717.875000
1228.588867	153051.718750
1227.484375	153793.375000
1226.379883	152690.765625
1225.274414	153332.656250
1224.168945	153377.218750
1223.063477	153525.781250
1221.958008	153421.062500
1220.851562	153162.656250
1219.746094	153494.218750
1218.639648	152551.187500
1217.533203	152297.578125
1216.425781	152760.109375
1215.319336	153281.187500
1214.211914	153111.109375
1213.104492	152825.953125
1211.997070	153337.687500
1210.889648	152251.406250
1209.781250	152905.203125
1208.672852	152665.375000
1207.564453	152087.296875
1206.456055	152034.875000
1205.347656	152286.859375
1204.238281	152108.171875
1203.128906	152434.406250
1202.019531	152336.875000
1200.910156	151854.062500
1199.800781	152002.203125
1198.690430	151877.734375
1197.580078	152473.921875
1196.469727	151795.546875
1195.359375	152312.734375
1194.249023	151733.640625
1193.137695	151861.343750
1192.026367	151608.765625
1190.915039	152555.218750
1189.803711	151625.625000
1188.691406	151447.421875
1187.580078	151817.828125
1186.467773	151729.546875
1185.355469	151335.640625
1184.242188	152137.265625
1183.129883	151685.000000
1182.016602	151302.531250
1180.903320	150906.718750
1179.790039	150796.203125
1178.676758	151361.437500
1177.562500	150833.390625
1176.449219	150817.171875
1175.334961	151426.968750
1174.219727	150623.234375
1173.105469	150732.656250
1171.990234	150694.031250
1170.875977	151202.468750
1169.760742	150056.359375
1168.644531	150506.453125
1167.529297	149746.312500
1166.413086	149898.296875
1165.297852	150502.718750
1164.181641	149839.265625
1163.064453	149729.140625
1161.948242	149663.843750
1160.831055	149661.218750
1159.713867	148982.718750
1158.596680	149470.250000
1157.479492	148970.984375
1156.362305	149469.515625
1155.244141	148426.984375
1154.125977	149160.187500
1153.007812	148616.609375
1151.888672	148974.000000
1150.770508	148506.625000
1149.651367	148468.406250
1148.532227	147954.359375
1147.413086	148081.531250
1146.293945	148083.593750
1145.173828	147712.781250
1144.053711	147877.843750
1142.933594	148116.500000
1141.813477	147529.406250
1140.693359	147009.453125
1139.572266	147350.734375
1138.451172	146833.218750
1137.330078	146837.687500
1136.208984	147321.468750
1135.086914	146786.390625
1133.965820	146933.468750
1132.843750	146897.781250
1131.721680	146117.984375
1130.599609	146278.453125
1129.476562	146089.218750
1128.353516	146078.171875
1127.230469	146240.765625
1126.107422	145909.156250
1124.984375	145726.765625
1123.860352	145446.546875
1122.737305	146007.312500
1121.613281	145893.937500
1120.488281	145691.656250
1119.364258	145556.125000
1118.239258	145485.125000
1117.115234	145060.734375
1115.990234	145185.375000
1114.864258	145163.343750
1113.739258	145201.265625
1112.613281	145059.281250
1111.487305	145832.218750
1110.361328	144449.093750
1109.235352	145512.625000
1108.108398	145170.921875
1106.982422	144969.125000
1105.855469	144794.015625
1104.728516	144752.062500
1103.600586	144869.796875
1102.473633	145262.406250
1101.345703	144675.015625
1100.217773	145016.531250
1099.089844	144857.093750
1097.960938	145041.125000
1096.833008	144775.390625
1095.704102	144208.515625
1094.575195	144906.312500
1093.446289	143511.546875
1092.316406	144344.234375
1091.187500	143687.093750
1090.057617	143286.875000
1088.927734	143999.656250
1087.796875	143940.156250
1086.666992	143989.046875
1085.536133	143465.218750
1084.405273	143580.484375
1083.274414	143366.359375
1082.143555	143603.156250
1081.011719	143327.218750
1079.879883	143535.203125
1078.748047	143338.875000
1077.616211	143747.734375
1076.484375	142727.859375
1075.351562	142710.593750
1074.218750	143474.671875
1073.085938	143079.906250
1071.953125	143565.625000
1070.820312	143340.828125
1069.686523	143038.921875
1068.552734	143400.875000
1067.418945	142422.171875
1066.284180	142726.781250
1065.150391	142707.281250
1064.015625	142806.781250
1062.880859	143249.921875
1061.746094	142631.171875
1060.611328	142668.953125
1059.475586	142508.515625
1058.339844	141577.609375
1057.204102	142661.078125
1056.068359	142505.125000
1054.932617	142672.671875
1053.795898	142307.765625
1052.659180	141804.421875
1051.522461	142015.968750
1050.385742	142073.515625
1049.248047	141860.640625
1048.110352	142252.281250
1046.972656	141525.218750
1045.834961	141927.750000
1044.697266	141994.015625
1043.558594	142235.968750
1042.419922	141832.218750
1041.281250	141894.062500
1040.142578	141795.625000
1039.003906	141352.656250
1037.864258	141798.546875
1036.724609	140987.140625
1035.584961	141612.796875
1034.445312	141306.125000
1033.304688	140379.031250
1032.165039	141070.187500
1031.024414	140698.015625
1029.883789	140702.921875
1028.742188	140475.546875
1027.601562	140195.671875
1026.459961	140537.953125
1025.318359	140516.562500
1024.176758	140337.546875
1023.034180	140355.593750
1021.892578	139981.859375
1020.750000	140146.578125
1019.607422	139757.687500
1018.463867	139725.500000
1017.321289	139352.125000
1016.177734	139790.140625
1015.034180	139891.312500
1013.890625	139850.343750
1012.747070	139759.140625
1011.602539	139407.921875
1010.458008	140109.843750
1009.313477	139498.750000
1008.168945	139101.890625
1007.024414	138805.625000
1005.878906	138898.031250
1004.733398	139365.828125
1003.587891	138866.703125
1002.442383	138884.859375
1001.295898	138909.531250
1000.149414	138506.718750
999.002930	138446.390625
997.856445	138479.843750
996.709961	138835.906250
995.562500	138302.593750
994.415039	137863.171875
993.267578	138646.156250
992.120117	138060.875000
990.972656	138773.812500
989.824219	137962.265625
988.675781	138043.609375
987.527344	138277.265625
986.378906	137418.359375
985.229492	138592.015625
984.080078	137816.015625
982.930664	137992.984375
981.781250	137597.937500
980.631836	137837.921875
979.481445	137862.593750
978.331055	137926.359375
977.180664	137766.281250
976.030273	137780.078125
974.879883	137446.281250
973.728516	138257.187500
972.577148	137767.078125
971.425781	137172.937500
970.273438	137343.078125
969.122070	138129.515625
967.969727	137813.343750
966.817383	137440.890625
965.665039	137571.796875
964.511719	137539.984375
963.359375	137865.953125
962.206055	137495.906250
961.052734	137325.390625
959.898438	136524.312500
958.745117	138076.546875
957.590820	137882.171875
956.436523	136784.687500
955.282227	137138.484375
954.127930	137017.984375
952.972656	137588.062500
951.817383	136660.234375
950.662109	137621.828125
949.506836	136304.890625
948.350586	136779.468750
947.195312	136352.031250
946.039062	136489.109375
944.882812	136613.156250
943.725586	136484.250000
942.569336	136083.093750
941.412109	135934.875000
940.254883	136767.484375
939.097656	136243.359375
937.939453	136395.343750
936.782227	135895.218750
935.624023	136150.828125
934.465820	136028.625000
933.306641	135474.875000
932.148438	135398.140625
930.989258	135053.937500
929.830078	136137.625000
928.670898	135683.421875
927.510742	135589.437500
926.351562	135491.156250
925.191406	135311.015625
924.031250	135206.359375
922.871094	135190.062500
921.709961	135147.906250
920.548828	134827.953125
919.387695	135098.093750
918.226562	134838.531250
917.065430	134749.093750
915.903320	134397.156250
914.741211	134221.765625
913.579102	134018.468750
912.416992	133873.312500
911.254883	134777.593750
910.091797	134161.484375
908.928711	134113.093750
907.765625	133821.859375
906.601562	133668.250000
905.438477	133596.312500
904.274414	134087.187500
903.110352	133265.687500
901.946289	133140.187500
900.781250	133171.437500
899.617188	133230.578125
898.452148	132637.281250
897.287109	132730.812500
896.121094	133384.218750
894.956055	133458.265625
893.790039	132653.046875
892.624023	132845.109375
891.458008	132769.140625
890.291016	132926.796875
889.125000	131987.250000
887.958008	132459.937500
886.791016	132437.625000
885.623047	132715.140625
884.456055	132876.921875
883.288086	131957.484375
882.120117	132463.953125
880.952148	132195.515625
879.783203	132218.171875
878.615234	132294.296875
877.446289	131611.078125
876.277344	132194.093750
875.107422	132545.968750
873.938477	132072.562500
872.768555	132050.296875
871.598633	131630.562500
870.428711	131781.421875
869.257812	131733.578125
868.087891	132266.656250
866.916992	131488.421875
865.746094	132010.671875
864.575195	131666.078125
863.403320	132121.921875
862.231445	131553.375000
861.059570	131765.859375
859.887695	132136.093750
858.715820	132184.171875
857.542969	131993.406250
856.370117	131429.656250
855.197266	131916.875000
854.024414	131956.406250
852.850586	131222.500000
851.676758	131372.906250
850.503906	131354.984375
849.329102	131692.687500
848.155273	132021.750000
846.980469	130898.929688
845.805664	131800.500000
844.630859	131184.562500
843.456055	131424.093750
842.280273	132078.296875
841.105469	132021.953125
839.929688	131514.843750
838.753906	131530.890625
837.577148	130945.406250
836.400391	131488.562500
835.224609	132008.140625
834.046875	131601.328125
832.870117	132910.781250
831.693359	132202.390625
830.515625	131617.390625
829.337891	130890.390625
828.160156	131532.562500
826.981445	131588.828125
825.803711	131642.953125
824.625000	131607.953125
823.446289	132162.546875
822.266602	131069.382812
821.087891	132024.531250
819.908203	131671.531250
818.728516	131909.906250
817.548828	132025.312500
816.368164	131227.609375
815.188477	131389.671875
814.007812	131606.734375
812.827148	131203.343750
811.645508	131170.562500
810.464844	131311.312500
809.283203	131473.187500
808.101562	131010.867188
806.919922	131223.484375
805.737305	131645.390625
804.554688	130648.304688
803.373047	130300.617188
802.189453	130665.367188
801.006836	130275.531250
799.823242	130950.742188
798.640625	130806.031250
797.457031	130678.265625
796.272461	130975.007812
795.088867	130530.546875
793.904297	130430.328125
792.719727	130509.539062
791.535156	130797.625000
790.350586	130781.789062
789.165039	129593.125000
787.979492	130090.000000
786.793945	130630.960938
785.608398	129731.796875
784.421875	130300.007812
783.236328	129793.210938
782.049805	130076.742188
780.862305	129812.429688
779.675781	130106.367188
778.488281	130090.632812
777.300781	130085.414062
776.113281	129956.000000
774.925781	129153.117188
773.737305	128998.664062
772.549805	128793.757812
771.361328	129832.117188
770.171875	129690.218750
768.983398	128782.968750
767.793945	129301.445312
766.604492	129126.070312
765.415039	128845.679688
764.225586	129036.054688
763.035156	129110.812500
761.845703	129141.421875
760.655273	128920.015625
759.463867	128990.531250
758.273438	128668.460938
757.082031	128550.085938
755.890625	128393.984375
754.699219	128747.765625
753.507812	128407.070312
752.315430	128295.101562
751.123047	127942.031250
749.930664	128364.789062
748.738281	127789.632812
747.544922	128159.859375
746.351562	128666.140625
745.158203	128830.750000
743.964844	127386.671875
742.771484	127863.468750
741.577148	128266.812500
740.382812	128466.929688
739.188477	127775.359375
737.994141	127950.375000
736.798828	128033.265625
735.603516	127618.257812
734.408203	128234.484375
733.212891	127855.132812
732.016602	128205.562500
730.821289	127431.281250
729.625000	128239.328125
728.428711	128376.343750
727.231445	127416.515625
726.035156	127315.507812
724.837891	127452.593750
723.640625	127998.867188
722.442383	127544.984375
721.245117	127953.273438
720.046875	127764.578125
718.848633	127129.468750
717.650391	127326.898438
716.451172	127384.507812
715.252930	128386.703125
714.053711	127539.273438
712.854492	127175.734375
711.654297	127233.312500
710.455078	127530.484375
709.254883	127692.125000
708.054688	127797.460938
706.853516	127184.289062
705.653320	127204.304688
704.452148	127082.742188
703.250977	127487.804688
702.049805	127191.429688
700.847656	127675.367188
699.646484	127811.726562
698.444336	127349.062500
697.242188	127420.960938
696.039062	127424.218750
694.836914	127363.031250
693.633789	127229.125000
692.430664	127178.382812
691.227539	127175.429688
690.023438	127475.718750
688.819336	127248.421875
687.615234	127160.312500
686.411133	126910.304688
685.207031	127693.992188
684.001953	127136.851562
682.796875	126982.414062
681.591797	127612.132812
680.386719	127100.929688
679.180664	126424.023438
677.974609	127084.570312
676.768555	126816.250000
675.562500	126979.085938
674.356445	126458.085938
673.149414	126691.359375
671.942383	126785.757812
670.735352	127025.078125
669.527344	126883.335938
668.320312	127708.375000
667.112305	127001.507812
665.904297	126628.070312
664.695312	126701.648438
663.487305	126326.320312
662.278320	126739.101562
661.069336	126109.554688
659.860352	126332.007812
658.650391	125967.343750
657.440430	125883.867188
656.230469	126044.234375
655.020508	126233.453125
653.810547	125724.468750
652.599609	126436.132812
651.388672	126371.203125
650.177734	126167.976562
648.966797	126369.351562
647.754883	125908.250000
646.542969	125705.210938
645.331055	126238.648438
644.119141	125895.367188
642.906250	125902.750000
641.694336	125586.453125
640.481445	125018.796875
639.267578	125220.039062
638.054688	125837.406250
636.840820	124771.468750
635.626953	125765.601562
634.413086	125002.781250
633.199219	125481.765625
631.984375	125408.875000
630.769531	124541.570312
629.554688	124643.773438
628.339844	125229.421875
627.124023	124568.320312
625.909180	125124.953125
624.693359	123948.000000
623.476562	124802.625000
622.260742	125944.687500
621.043945	124768.218750
619.827148	124985.250000
618.610352	125364.476562
617.393555	125193.117188
616.175781	125775.453125
614.958008	125979.789062
613.740234	125701.648438
612.522461	125700.671875
611.303711	125527.328125
610.084961	125444.312500
608.866211	125336.703125
607.647461	124683.617188
606.427734	124721.757812
605.208984	124112.070312
603.989258	124568.429688
602.768555	124315.562500
601.548828	123896.820312
600.328125	124006.750000
599.107422	123553.390625
597.886719	123880.390625
596.666016	123296.179688
595.444336	123692.695312
594.222656	124156.585938
593.000977	123687.226562
591.779297	123430.804688
590.556641	123532.429688
589.334961	124010.296875
588.112305	123434.968750
586.888672	123591.710938
585.666016	123243.539062
584.442383	123187.718750
583.218750	124016.593750
581.995117	122959.687500
580.770508	123424.742188
579.546875	123722.171875
578.322266	122827.179688
577.097656	123179.710938
575.872070	123285.164062
574.647461	123255.898438
573.421875	123132.796875
572.196289	123358.515625
570.969727	123204.843750
569.744141	122837.125000
568.517578	122905.796875
567.291016	123357.601562
566.064453	123149.000000
564.836914	122879.343750
563.609375	122347.007812
562.381836	122990.007812
561.154297	122531.140625
559.926758	122860.328125
558.698242	122879.992188
557.469727	122364.406250
556.241211	122217.296875
555.012695	122037.687500
553.783203	122069.664062
552.553711	122400.570312
551.324219	122139.679688
550.094727	122287.476562
548.864258	121961.656250
547.633789	122091.132812
546.403320	121440.398438
545.172852	121281.468750
543.941406	121061.664062
542.710938	121473.429688
541.479492	121521.640625
540.247070	120849.265625
539.015625	120578.953125
537.783203	121087.867188
536.550781	120693.859375
535.318359	120748.226562
534.085938	120553.148438
532.852539	119922.226562
531.619141	120307.101562
530.385742	119970.328125
529.152344	120419.882812
527.917969	119831.992188
526.683594	119979.585938
525.449219	120102.812500
524.214844	119509.218750
522.979492	119484.695312
521.744141	119458.156250
520.508789	119486.257812
519.273438	119666.085938
518.037109	119113.562500
516.801758	119471.359375
515.565430	118874.578125
514.328125	119167.585938
513.091797	118945.023438
511.854492	119619.859375
510.617188	119047.726562
509.379883	118898.031250
508.142578	119332.109375
506.904297	119636.781250
505.666016	119137.742188
504.427734	118677.234375
503.189453	119230.093750
501.950195	119264.125000
500.710938	118983.406250
499.471680	119132.437500
498.232422	119749.304688
496.992188	119037.117188
495.751953	119720.296875
494.511719	119078.921875
493.271484	119802.117188
492.030273	119237.523438
490.790039	118546.218750
489.548828	118437.257812
488.306641	119085.507812
487.065430	118134.882812
485.823242	118754.742188
484.581055	118142.648438
483.338867	118764.281250
482.095703	118593.000000
480.853516	118443.898438
479.610352	118172.179688
478.367188	117769.859375
477.123047	118724.656250
475.879883	117990.726562
474.635742	118611.531250
473.391602	118277.718750
472.146484	117696.937500
470.902344	118526.304688
469.657227	118228.820312
468.412109	117523.890625
467.166016	117842.945312
465.920898	117872.875000
464.674805	117433.257812
463.428711	117270.648438
462.182617	117745.945312
460.935547	117471.023438
459.688477	117607.234375
458.441406	117432.664062
457.194336	117460.593750
455.946289	117468.460938
454.699219	117482.335938
453.451172	117013.437500
452.202148	117295.750000
450.954102	116642.835938
449.705078	116594.765625
448.456055	117447.445312
447.207031	115850.265625
445.958008	116220.539062
444.708008	116360.609375
443.458008	116484.625000
442.208008	116608.585938
440.957031	115970.734375
439.707031	116108.726562
438.456055	115569.132812
437.205078	115281.523438
435.953125	115273.703125
434.702148	115869.125000
433.450195	115429.812500
432.198242	114615.289062
430.945312	115408.109375
429.693359	115280.500000
428.440430	115065.117188
427.187500	114995.460938
425.934570	115015.593750
424.680664	115370.781250
423.426758	115097.703125
422.172852	115632.156250
420.918945	115680.039062
419.664062	115582.414062
418.410156	116261.921875
417.155273	116006.828125
415.899414	116889.148438
414.644531	117195.601562
413.388672	117529.812500
412.132812	117384.132812
410.876953	117298.218750
409.620117	116758.625000
408.364258	116177.453125
407.107422	115138.984375
405.849609	114701.523438
404.592773	114300.007812
403.334961	114063.648438
402.077148	113831.343750
400.819336	113646.820312
399.561523	114024.664062
398.302734	113260.093750
397.043945	113471.007812
395.785156	113256.882812
394.525391	112880.039062
393.266602	113374.750000
392.006836	113311.578125
390.747070	113351.617188
389.486328	113036.507812
388.226562	113233.265625
386.965820	113277.242188
385.705078	112944.468750
384.443359	112885.390625
383.182617	112812.453125
381.920898	112838.617188
380.659180	112191.132812
379.396484	112486.796875
378.134766	111881.210938
376.872070	112311.460938
375.609375	112113.953125
374.346680	111989.757812
373.083008	111643.945312
371.819336	111409.070312
370.555664	111965.585938
369.291992	111479.531250
368.027344	111620.531250
366.762695	111136.695312
365.498047	111192.695312
364.233398	111122.179688
362.968750	110925.218750
361.703125	110671.039062
360.437500	110912.734375
359.170898	110218.242188
357.905273	110463.867188
356.638672	110125.054688
355.372070	110287.703125
354.105469	110045.742188
352.837891	109965.648438
351.571289	109276.039062
350.303711	109054.109375
349.035156	109847.781250
347.767578	109389.234375
346.499023	109129.945312
345.230469	109662.992188
343.961914	108818.531250
342.692383	108979.093750
341.423828	108747.632812
340.154297	108990.843750
338.883789	108527.125000
337.614258	108795.867188
336.343750	108464.218750
335.073242	108587.250000
333.802734	108106.234375
332.532227	108211.562500
331.260742	107931.390625
329.989258	107649.351562
328.717773	108096.765625
327.445312	107584.828125
326.173828	107468.070312
324.901367	107239.359375
323.627930	107519.515625
322.355469	107868.296875
321.082031	107800.648438
319.808594	107568.101562
318.535156	107304.234375
317.261719	107843.140625
315.987305	107591.078125
314.712891	107484.281250
313.438477	107663.890625
312.164062	108082.671875
310.888672	108430.703125
309.613281	108255.195312
308.337891	108561.890625
307.061523	108931.171875
305.786133	109298.351562
304.509766	110437.148438
303.233398	110796.054688
301.956055	111262.507812
300.678711	111634.812500
299.402344	111721.195312
298.124023	112697.953125
296.846680	113103.015625
295.568359	114593.601562
294.290039	115764.820312
293.011719	115040.757812
291.733398	112936.687500
290.454102	110192.265625
289.174805	108719.203125
287.895508	107227.156250
286.616211	106710.507812
285.335938	105508.476562
284.055664	105072.406250
282.775391	105025.046875
281.494141	104575.562500
280.213867	104214.070312
278.932617	103983.453125
277.651367	103895.343750
276.369141	103483.460938
275.087891	102839.648438
273.805664	103036.468750
272.523438	102663.953125
271.240234	102854.875000
269.958008	102414.328125
268.674805	102427.914062
267.390625	101987.601562
266.107422	102108.367188
264.823242	102075.257812
263.539062	101366.578125
262.254883	101722.914062
260.970703	101226.687500
259.685547	101606.250000
258.400391	101349.523438
257.115234	101645.265625
255.830078	101318.609375
254.543945	100780.140625
253.257812	100930.015625
251.971680	100871.875000
250.684570	101367.554688
249.398438	101554.132812
248.111328	101985.375000
246.824219	101802.765625
245.536133	101229.937500
244.248047	100767.984375
242.960938	100781.726562
241.671875	100211.351562
240.383789	100199.960938
239.094727	100089.648438
237.805664	100243.132812
236.516602	100233.671875
235.227539	100321.140625
233.937500	100177.914062
232.647461	101011.476562
231.357422	102553.882812
230.066406	104419.218750
228.775391	106388.421875
227.485352	108339.437500
226.193359	106520.054688
224.902344	103054.031250
223.610352	101253.765625
222.318359	99314.867188
221.026367	98651.632812
219.733398	98096.968750
218.441406	97619.867188
217.148438	97895.093750
215.854492	97232.617188
214.561523	96166.437500
213.267578	96853.375000
211.973633	96456.156250
210.679688	96356.570312
209.384766	95868.820312
208.090820	95896.812500
206.795898	95455.656250
205.500000	95223.132812
204.205078	94915.429688
202.909180	95204.046875
201.613281	94670.750000
200.317383	94162.718750
199.020508	94646.070312
197.723633	94311.750000
196.426758	94465.250000
195.129883	93651.203125
193.832031	93255.593750
192.534180	93480.468750
191.236328	93348.921875
189.938477	93013.281250
188.639648	92708.578125
187.341797	92706.218750
186.042969	92800.085938
184.743164	92532.140625
183.444336	92574.054688
182.144531	91994.625000
180.844727	92363.554688
179.543945	91517.117188
178.244141	91953.273438
176.943359	91956.789062
175.642578	92094.820312
174.340820	91794.718750
173.040039	91175.851562
171.738281	91192.937500
170.435547	91148.570312
169.133789	91655.218750
167.831055	91503.273438
166.528320	90858.156250
165.225586	90480.000000
163.922852	90499.093750
162.619141	90942.062500
161.315430	90606.281250
160.011719	90165.171875
158.708008	90289.718750
157.403320	90086.484375
156.098633	89398.523438
154.793945	89473.328125
153.488281	89011.765625
152.182617	88604.000000
150.876953	88299.781250
149.571289	88194.773438
148.265625	88773.093750
146.958984	87889.171875
145.652344	88103.796875
144.345703	88073.492188
143.038086	87683.632812
141.730469	88318.843750
140.422852	87433.921875
139.115234	87329.203125
137.806641	86930.218750
136.498047	87312.851562
135.189453	86117.406250
133.880859	85520.234375
132.571289	84902.281250
131.262695	83560.960938
129.952148	83373.109375
128.642578	82521.164062
127.332031	80482.695312
126.021484	79879.632812
124.710938	78342.179688
123.400391	76929.273438
122.088867	75080.281250
120.777344	73304.437500
119.465820	71275.781250
