#Wave		#Intensity
3199.210938	4233.903809
3198.278320	4276.778809
3197.345703	4337.705078
3196.412109	4379.859375
3195.478516	4258.618652
3194.544922	4276.670410
3193.611328	4399.138672
3192.677734	4328.818359
3191.743164	4480.680664
3190.809570	4247.121582
3189.875000	4372.190430
3188.940430	4411.607910
3188.005859	4287.844238
3187.071289	4415.519043
3186.136719	4425.495605
3185.201172	4395.364746
3184.265625	4381.282715
3183.330078	4404.623047
3182.394531	4417.266602
3181.458984	4389.828613
3180.523438	4306.299316
3179.587891	4244.165527
3178.651367	4286.202148
3177.714844	4312.204590
3176.778320	4279.465820
3175.841797	4340.160156
3174.905273	4299.420898
3173.968750	4504.183594
3173.031250	4474.102051
3172.093750	4315.991211
3171.156250	4285.950195
3170.218750	4522.580078
3169.281250	4308.548340
3168.343750	4395.815430
3167.405273	4339.127441
3166.467773	4407.706543
3165.529297	4420.310059
3164.590820	4467.541504
3163.652344	4440.177246
3162.713867	4308.959473
3161.774414	4425.416016
3160.835938	4360.799805
3159.896484	4352.103516
3158.957031	4348.732422
3158.017578	4451.800781
3157.078125	4408.506348
3156.137695	4439.708496
3155.198242	4417.707031
3154.257812	4440.919922
3153.317383	4416.266113
3152.376953	4362.378906
3151.436523	4281.929199
3150.496094	4345.010742
3149.554688	4378.843750
3148.614258	4558.780762
3147.672852	4281.792480
3146.731445	4347.488281
3145.790039	4532.652344
3144.848633	4436.336426
3143.906250	4398.450195
3142.964844	4485.315918
3142.022461	4431.512207
3141.080078	4364.459961
3140.137695	4384.969727
3139.195312	4492.998535
3138.252930	4399.450195
3137.309570	4435.852539
3136.366211	4384.759766
3135.422852	4378.743164
3134.480469	4407.180176
3133.536133	4419.709473
3132.592773	4384.547852
3131.649414	4463.297852
3130.705078	4489.053711
3129.760742	4424.769531
3128.816406	4439.932617
3127.872070	4553.034180
3126.927734	4364.376465
3125.983398	4400.711914
3125.038086	4561.388672
3124.092773	4420.438477
3123.147461	4313.918945
3122.202148	4379.328125
3121.256836	4500.241211
3120.311523	4457.208008
3119.365234	4527.847656
3118.419922	4516.537598
3117.473633	4455.025879
3116.527344	4425.237305
3115.581055	4445.646973
3114.633789	4405.305176
3113.687500	4370.257812
3112.740234	4382.745117
3111.792969	4392.588867
3110.846680	4420.904297
3109.898438	4420.182617
3108.951172	4443.207520
3108.003906	4387.083008
3107.055664	4381.091309
3106.107422	4546.519043
3105.160156	4458.763672
3104.211914	4394.763672
3103.262695	4565.379395
3102.314453	4361.702637
3101.365234	4440.041504
3100.416992	4492.008789
3099.467773	4443.859863
3098.518555	4456.302734
3097.569336	4502.974609
3096.619141	4389.024902
3095.669922	4480.444336
3094.719727	4516.561035
3093.770508	4547.402344
3092.820312	4380.895996
3091.869141	4390.703613
3090.918945	4445.222656
3089.968750	4447.126465
3089.017578	4614.685059
3088.066406	4351.028809
3087.116211	4515.919434
3086.164062	4544.091309
3085.212891	4309.480957
3084.261719	4466.415039
3083.309570	4439.416504
3082.358398	4485.967285
3081.406250	4385.445801
3080.454102	4416.236328
3079.501953	4544.147461
3078.548828	4540.780273
3077.596680	4505.922363
3076.643555	4520.929199
3075.690430	4499.203125
3074.737305	4430.269531
3073.784180	4481.997070
3072.831055	4360.645508
3071.876953	4603.753418
3070.923828	4429.995605
3069.969727	4465.963379
3069.015625	4389.240723
3068.061523	4503.804199
3067.107422	4408.762695
3066.152344	4476.140625
3065.198242	4436.127930
3064.243164	4637.011719
3063.288086	4570.807129
3062.333008	4475.832031
3061.377930	4571.929688
3060.421875	4500.534668
3059.466797	4512.879883
3058.510742	4472.905762
3057.554688	4451.252441
3056.598633	4291.016602
3055.642578	4507.314941
3054.686523	4469.981445
3053.729492	4534.590820
3052.773438	4599.178223
3051.816406	4567.073730
3050.859375	4534.979004
3049.902344	4497.670898
3048.945312	4483.878418
3047.988281	4527.532715
3047.029297	4589.446777
3046.072266	4502.560547
3045.113281	4504.433594
3044.156250	4561.102051
3043.197266	4539.485352
3042.238281	4470.922363
3041.281250	4493.663574
3040.322266	4492.928711
3039.363281	4593.874512
3038.404297	4499.279297
3037.445312	4529.819336
3036.486328	4463.930664
3035.525391	4580.447266
3034.566406	4587.513184
3033.605469	4516.437500
3032.646484	4562.574707
3031.685547	4572.243164
3030.726562	4571.495117
3029.765625	4633.217773
3028.804688	4489.321777
3027.843750	4446.954102
3026.882812	4550.292969
3025.921875	4445.499023
3024.960938	4699.650391
3024.000000	4610.468750
3023.037109	4583.714844
3022.076172	4577.765625
3021.115234	4660.187500
3020.152344	4659.425293
3019.189453	4458.597168
3018.228516	4624.128418
3017.265625	4581.813477
3016.302734	4555.093750
3015.339844	4564.734375
3014.376953	4587.352539
3013.414062	4581.410156
3012.451172	4526.159668
3011.486328	4561.746582
3010.523438	4592.133301
3009.560547	4516.155273
3008.595703	4564.693848
3007.630859	4595.064453
3006.667969	4568.385254
3005.703125	4637.629395
3004.738281	4569.481445
3003.773438	4630.928223
3002.808594	4516.164551
3001.843750	4543.921875
3000.878906	4550.948730
2999.914062	4687.460449
2998.947266	4515.797363
2997.982422	4592.725098
2997.015625	4667.039062
2996.050781	4699.919434
2995.083984	4567.180664
2994.117188	4607.828125
2993.152344	4568.271484
2992.185547	4629.596191
2991.218750	4569.361328
2990.251953	4643.593262
2989.283203	4746.236328
2988.316406	4657.580078
2987.349609	4574.121582
2986.382812	4503.608887
2985.414062	4699.209961
2984.447266	4623.533691
2983.478516	4496.231445
2982.509766	4557.465820
2981.541016	4608.353516
2980.572266	4690.199707
2979.605469	4686.850586
2978.634766	4500.291016
2977.666016	4569.214355
2976.697266	4635.535156
2975.728516	4559.979980
2974.759766	4703.642578
2973.789062	4671.932129
2972.820312	4570.628418
2971.849609	4642.048828
2970.878906	4710.869141
2969.908203	4679.177246
2968.939453	4614.005371
2967.968750	4636.431152
2966.998047	4627.945312
2966.027344	4575.687988
2965.054688	4688.217285
2964.083984	4643.688965
2963.113281	4563.144043
2962.140625	4536.663574
2961.169922	4646.552246
2960.197266	4530.031738
2959.226562	4598.732910
2958.253906	4549.119141
2957.281250	4538.088867
2956.308594	4637.603516
2955.335938	4600.858887
2954.363281	4548.707031
2953.390625	4738.102051
2952.417969	4554.922852
2951.443359	4667.195801
2950.470703	4648.453125
2949.496094	4670.801270
2948.523438	4521.128418
2947.548828	4643.600098
2946.576172	4581.242188
2945.601562	4565.094727
2944.626953	4610.528320
2943.652344	4671.338379
2942.677734	4693.656250
2941.703125	4533.892578
2940.726562	4558.789062
2939.751953	4696.474609
2938.777344	4544.478027
2937.800781	4530.918945
2936.826172	4663.416504
2935.849609	4588.356445
2934.873047	4613.218750
2933.898438	4638.072754
2932.921875	4557.932129
2931.945312	4495.739258
2930.968750	4694.666016
2929.992188	4588.961426
2929.013672	4624.034180
2928.037109	4533.726562
2927.060547	4637.865723
2926.082031	4552.700684
2925.105469	4564.740234
2924.126953	4540.979980
2923.148438	4417.525879
2922.171875	4516.485840
2921.193359	4571.967773
2920.214844	4512.448242
2919.236328	4529.591309
2918.257812	4533.957031
2917.279297	4433.609863
2916.298828	4690.786133
2915.320312	4490.875977
2914.339844	4510.560059
2913.361328	4606.805176
2912.380859	4506.527832
2911.402344	4510.891113
2910.421875	4607.088379
2909.441406	4593.579590
2908.460938	4567.323730
2907.480469	4574.223633
2906.500000	4494.443848
2905.519531	4628.797852
2904.539062	4551.583496
2903.556641	4591.605469
2902.576172	4547.541504
2901.593750	4544.248047
2900.613281	4658.107910
2899.630859	4563.126953
2898.648438	4626.027344
2897.666016	4477.625488
2896.685547	4520.157715
2895.703125	4537.228516
2894.718750	4528.850586
2893.736328	4637.493652
2892.753906	4499.385254
2891.771484	4585.109863
2890.787109	4495.365234
2889.804688	4591.230957
2888.820312	4641.312988
2887.837891	4498.233398
2886.853516	4464.462402
2885.869141	4504.377930
2884.884766	4478.236816
2883.900391	4553.692383
2882.916016	4547.865723
2881.931641	4559.813477
2880.947266	4561.603027
2879.960938	4538.011230
2878.976562	4532.190430
2877.990234	4605.024902
2877.005859	4627.099609
2876.019531	4679.603027
2875.033203	4379.591797
2874.048828	4584.250977
2873.062500	4497.303711
2872.076172	4592.883301
2871.089844	4531.305664
2870.101562	4581.238770
2869.115234	4471.547363
2868.128906	4516.407227
2867.140625	4533.393555
2866.154297	4570.631836
2865.166016	4336.956055
2864.179688	4526.096191
2863.191406	4530.414551
2862.203125	4514.486816
2861.214844	4642.781250
2860.226562	4545.889160
2859.238281	4484.438965
2858.250000	4716.358398
2857.261719	4581.574707
2856.271484	4510.036621
2855.283203	4683.701660
2854.294922	4435.264648
2853.304688	4457.276855
2852.314453	4608.126953
2851.326172	4556.850098
2850.335938	4588.933105
2849.345703	4552.826660
2848.355469	4481.386230
2847.365234	4457.930664
2846.375000	4570.772949
2845.382812	4433.753418
2844.392578	4460.777832
2843.402344	4676.992676
2842.410156	4615.689941
2841.419922	4546.841797
2840.427734	4510.794434
2839.435547	4633.581055
2838.443359	4642.901367
2837.453125	4490.928223
2836.460938	4444.833984
2835.468750	4486.931641
2834.474609	4574.355957
2833.482422	4586.195801
2832.490234	4560.260742
2831.496094	4551.957520
2830.503906	4541.139648
2829.509766	4479.988281
2828.517578	4587.458008
2827.523438	4523.803223
2826.529297	4485.324707
2825.535156	4665.680664
2824.541016	4664.913086
2823.546875	4540.941895
2822.552734	4525.110840
2821.558594	4667.638184
2820.562500	4578.910645
2819.568359	4661.076660
2818.574219	4489.473633
2817.578125	4569.115234
2816.582031	4515.622559
2815.587891	4577.655762
2814.591797	4581.923828
2813.595703	4669.027832
2812.599609	4547.788086
2811.603516	4554.567871
2810.607422	4634.105957
2809.609375	4638.360352
2808.613281	4522.221191
2807.617188	4594.201660
2806.619141	4538.284180
2805.621094	4665.390625
2804.625000	4509.218750
2803.626953	4603.708008
2802.628906	4582.904785
2801.630859	4689.876953
2800.632812	4573.881348
2799.634766	4560.605957
2798.636719	4532.310547
2797.638672	4581.637207
2796.638672	4683.514648
2795.640625	4595.145508
2794.640625	4644.436523
2793.642578	4581.122070
2792.642578	4637.903809
2791.642578	4577.112305
2790.644531	4673.887695
2789.644531	4645.614258
2788.644531	4609.850586
2787.644531	4709.071777
2786.642578	4425.897949
2785.642578	4647.552246
2784.642578	4699.250488
2783.640625	4765.918457
2782.640625	4610.291504
2781.638672	4669.461426
2780.636719	4666.195312
2779.636719	4660.434570
2778.634766	4604.758789
2777.632812	4559.083496
2776.630859	4703.041016
2775.628906	4590.010742
2774.626953	4659.090820
2773.623047	4790.492188
2772.621094	4742.329102
2771.617188	4611.915527
2770.615234	4533.887695
2769.611328	4597.935547
2768.609375	4502.493164
2767.605469	4706.036621
2766.601562	4615.589844
2765.597656	4604.867188
2764.593750	4738.571289
2763.589844	4740.279785
2762.585938	4602.590820
2761.580078	4778.538574
2760.576172	4598.585449
2759.570312	4677.443848
2758.566406	4621.945801
2757.560547	4658.491699
2756.554688	4595.554199
2755.550781	4627.119629
2754.544922	4683.533691
2753.539062	4555.999023
2752.533203	4582.584473
2751.527344	4629.038574
2750.519531	4702.804688
2749.513672	4721.900391
2748.507812	4616.815430
2747.500000	4757.589844
2746.494141	4662.463867
2745.486328	4554.957520
2744.478516	4718.008789
2743.470703	4613.010254
2742.462891	4818.175781
2741.455078	4683.427246
2740.447266	4580.965820
2739.439453	4642.205566
2738.431641	4695.986816
2737.423828	4732.396973
2736.414062	4788.624023
2735.406250	4616.839844
2734.396484	4556.612305
2733.386719	4645.045410
2732.378906	4674.002441
2731.369141	4787.152344
2730.359375	4821.028809
2729.349609	4518.194824
2728.339844	4804.585938
2727.330078	4769.145020
2726.318359	4560.500000
2725.308594	4594.384766
2724.296875	4675.258301
2723.287109	4642.334473
2722.275391	4550.072266
2721.265625	4569.101074
2720.253906	4743.862793
2719.242188	4557.707031
2718.230469	4601.437012
2717.218750	4617.973633
2716.207031	4602.388672
2715.195312	4712.779785
2714.181641	4556.416992
2713.169922	4666.778809
2712.156250	4685.758789
2711.144531	4633.149414
2710.130859	4521.325684
2709.117188	4710.582031
2708.105469	4640.724121
2707.091797	4657.225098
2706.078125	4624.394043
2705.064453	4589.107422
2704.050781	4640.125977
2703.035156	4602.382812
2702.021484	4643.523438
2701.007812	4721.614258
2699.992188	4644.454102
2698.976562	4518.048828
2697.962891	4650.309570
2696.947266	4546.108887
2695.931641	4508.424316
2694.916016	4684.934082
2693.900391	4647.238770
2692.884766	4570.178223
2691.869141	4749.050781
2690.853516	4612.953125
2689.835938	4725.343750
2688.820312	4695.050293
2687.802734	4645.094238
2686.787109	4691.041016
2685.769531	4476.401855
2684.751953	4615.756836
2683.734375	4619.909180
2682.716797	4493.839355
2681.699219	4625.752930
2680.681641	4534.109863
2679.664062	4592.299316
2678.646484	4618.549805
2677.626953	4622.696777
2676.609375	4565.478027
2675.589844	4638.348145
2674.572266	4774.991699
2673.552734	4614.735352
2672.533203	4572.272949
2671.513672	4520.014160
2670.494141	4735.054199
2669.474609	4665.623535
2668.455078	4549.640625
2667.435547	4610.161621
2666.414062	4589.795410
2665.394531	4660.089844
2664.373047	4480.492188
2663.353516	4543.433105
2662.332031	4525.539551
2661.310547	4620.282227
2660.289062	4683.168457
2659.267578	4552.667969
2658.246094	4664.489258
2657.224609	4560.950195
2656.203125	4550.410156
2655.181641	4664.622559
2654.158203	4526.895020
2653.136719	4528.591797
2652.113281	4598.743164
2651.091797	4644.427246
2650.068359	4587.446289
2649.044922	4611.124023
2648.021484	4617.691406
2646.998047	4607.156250
2645.974609	4613.721680
2644.951172	4669.125000
2643.927734	4643.936523
2642.904297	4589.461914
2641.878906	4537.446289
2640.855469	4580.622559
2639.830078	4665.264648
2638.804688	4649.855469
2637.781250	4671.039062
2636.755859	4548.327148
2635.730469	4584.150391
2634.705078	4537.070801
2633.679688	4516.819336
2632.652344	4645.242188
2631.626953	4522.635254
2630.601562	4573.050781
2629.574219	4567.421875
2628.548828	4681.137695
2627.521484	4590.262207
2626.494141	4655.240723
2625.468750	4603.349121
2624.441406	4751.058105
2623.414062	4631.028320
2622.386719	4532.936523
2621.359375	4627.062988
2620.330078	4577.650391
2619.302734	4593.916504
2618.275391	4661.238770
2617.246094	4485.426270
2616.216797	4669.418457
2615.189453	4576.293457
2614.160156	4667.873047
2613.130859	4596.644043
2612.101562	4530.297363
2611.072266	4546.548340
2610.042969	4441.377930
2609.013672	4479.489258
2607.984375	4704.505859
2606.953125	4570.235840
2605.923828	4416.597168
2604.892578	4561.443848
2603.863281	4665.001953
2602.832031	4666.655273
2601.800781	4442.773438
2600.769531	4766.946777
2599.738281	4504.333984
2598.707031	4537.522461
2597.675781	4517.382812
2596.644531	4528.750000
2595.611328	4644.289062
2594.580078	4570.851074
2593.546875	4504.703125
2592.515625	4516.064453
2591.482422	4573.422363
2590.449219	4572.664551
2589.416016	4654.196777
2588.382812	4486.454102
2587.349609	4497.808105
2586.316406	4625.273926
2585.283203	4445.525879
2584.250000	4534.265625
2583.214844	4543.185547
2582.181641	4508.588379
2581.146484	4382.153320
2580.113281	4606.177734
2579.078125	4479.768066
2578.042969	4544.254395
2577.007812	4487.945312
2575.972656	4578.974609
2574.937500	4592.703613
2573.902344	4531.585449
2572.867188	4480.143066
2571.830078	4450.438965
2570.794922	4560.702637
2569.757812	4489.979004
2568.722656	4573.664551
2567.685547	4507.785645
2566.648438	4446.751465
2565.611328	4417.081543
2564.574219	4457.330566
2563.537109	4461.412109
2562.500000	4318.490234
2561.462891	4450.294922
2560.425781	4504.965820
2559.386719	4429.549805
2558.349609	4373.425293
2557.310547	4469.015137
2556.271484	4388.827148
2555.234375	4530.116699
2554.195312	4522.145508
2553.156250	4475.676270
2552.117188	4477.339844
2551.078125	4488.624512
2550.037109	4483.070312
2548.998047	4417.399902
2547.958984	4370.985840
2546.917969	4531.321289
2545.878906	4629.112305
2544.837891	4541.833496
2543.796875	4464.193848
2542.757812	4489.878418
2541.716797	4417.077148
2540.675781	4401.935059
2539.634766	4442.023438
2538.591797	4455.690430
2537.550781	4493.355957
2536.509766	4523.809082
2535.466797	4585.445312
2534.425781	4464.729492
2533.382812	4475.981934
2532.339844	4528.001953
2531.298828	4426.538574
2530.255859	4437.791504
2529.212891	4535.336426
2528.169922	4496.236328
2527.126953	4495.489746
2526.082031	4418.074219
2525.039062	4462.855957
2523.996094	4572.291016
2522.951172	4382.348633
2521.906250	4391.198242
2520.863281	4447.923828
2519.818359	4521.384766
2518.773438	4436.874512
2517.728516	4448.101562
2516.683594	4354.061523
2515.638672	4456.192383
2514.593750	4505.674805
2513.546875	4385.369141
2512.501953	4418.111328
2511.457031	4434.110352
2510.410156	4495.512695
2509.363281	4504.324707
2508.318359	4522.689941
2507.271484	4364.280273
2506.224609	4561.790039
2505.177734	4506.108887
2504.130859	4608.026367
2503.082031	4497.450684
2502.035156	4360.656738
2500.988281	4512.661133
2499.939453	4404.541992
2498.892578	4594.658203
2497.843750	4415.004883
2496.794922	4478.661133
2495.748047	4449.304199
2494.699219	4653.589844
2493.650391	4423.989258
2492.601562	4408.955078
2491.550781	4398.691406
2490.501953	4417.019531
2489.453125	4449.634277
2488.402344	4515.580566
2487.353516	4398.149414
2486.302734	4511.698730
2485.251953	4427.633301
2484.203125	4429.277832
2483.152344	4380.948242
2482.101562	4599.112305
2481.050781	4488.919922
2480.000000	4528.607910
2478.947266	4463.646973
2477.896484	4500.947754
2476.845703	4450.276367
2475.792969	4532.728027
2474.740234	4543.856934
2473.689453	4412.416016
2472.636719	4425.936523
2471.583984	4413.324219
2470.531250	4547.960449
2469.478516	4578.072754
2468.425781	4470.476074
2467.373047	4386.652344
2466.318359	4547.309570
2465.265625	4382.820312
2464.210938	4422.424805
2463.158203	4459.643555
2462.103516	4437.556152
2461.048828	4462.903320
2459.996094	4433.708984
2458.941406	4444.824707
2457.886719	4579.185547
2456.830078	4587.902832
2455.775391	4471.039551
2454.720703	4548.472656
2453.664062	4552.453125
2452.609375	4357.502930
2451.552734	4513.053711
2450.498047	4443.647461
2449.441406	4613.333984
2448.384766	4418.502441
2447.328125	4484.021973
2446.271484	4402.837402
2445.214844	4444.682617
2444.158203	4474.688965
2443.099609	4530.696289
2442.042969	4366.807617
2440.986328	4538.643555
2439.927734	4481.164551
2438.869141	4487.508301
2437.812500	4387.527832
2436.753906	4573.419434
2435.695312	4409.686523
2434.636719	4215.308105
2433.578125	4542.802734
2432.517578	4440.535156
2431.458984	4524.768066
2430.400391	4460.295898
2429.339844	4391.126465
2428.281250	4454.092773
2427.220703	4389.664551
2426.160156	4497.418945
2425.101562	4425.930176
2424.041016	4413.405273
2422.980469	4462.171875
2421.917969	4423.719727
2420.857422	4488.962402
2419.796875	4481.146973
2418.736328	4447.421875
2417.673828	4359.537598
2416.613281	4330.553223
2415.550781	4499.352539
2414.488281	4425.626953
2413.425781	4469.609375
2412.363281	4497.104492
2411.300781	4421.062988
2410.238281	4394.449219
2409.175781	4461.927734
2408.113281	4331.840820
2407.048828	4486.305664
2405.986328	4363.310059
2404.921875	4449.552734
2403.859375	4535.766602
2402.794922	4304.735840
2401.730469	4400.341797
2400.666016	4390.212891
2399.601562	4466.983887
2398.537109	4323.000488
2397.472656	4362.192383
2396.408203	4316.864746
2395.341797	4367.779785
2394.277344	4338.892090
2393.210938	4333.476562
2392.146484	4403.129395
2391.080078	4414.122559
2390.013672	4326.619629
2388.947266	4558.020020
2387.880859	4327.521484
2386.814453	4364.302246
2385.748047	4389.353027
2384.681641	4503.433105
2383.613281	4308.237305
2382.546875	4497.246582
2381.478516	4370.032715
2380.410156	4376.328613
2379.343750	4340.481934
2378.275391	4267.194824
2377.207031	4456.052246
2376.138672	4431.909668
2375.070312	4304.833008
2374.001953	4341.541992
2372.931641	4357.189453
2371.863281	4382.185547
2370.794922	4358.074219
2369.724609	4420.463379
2368.654297	4270.142578
2367.585938	4358.230469
2366.515625	4278.063477
2365.445312	4422.186523
2364.375000	4309.335938
2363.304688	4306.281738
2362.232422	4312.567871
2361.162109	4475.264160
2360.091797	4402.159668
2359.019531	4308.075684
2357.949219	4312.023438
2356.876953	4360.296387
2355.804688	4343.240723
2354.732422	4277.214844
2353.662109	4276.500977
2352.589844	4327.078125
2351.515625	4312.369629
2350.443359	4360.592773
2349.371094	4369.186035
2348.298828	4342.828613
2347.224609	4297.843750
2346.150391	4339.049805
2345.078125	4289.422852
2344.003906	4346.914062
2342.929688	4376.451172
2341.855469	4315.205078
2340.781250	4358.700195
2339.707031	4357.972168
2338.632812	4261.864258
2337.558594	4300.694336
2336.482422	4237.185547
2335.408203	4306.233398
2334.332031	4263.667969
2333.255859	4297.822266
2332.181641	4257.596191
2331.105469	4333.564453
2330.029297	4311.931641
2328.953125	4318.180176
2327.876953	4250.107422
2326.798828	4228.498535
2325.722656	4297.442871
2324.646484	4266.548340
2323.568359	4328.500000
2322.492188	4357.943848
2321.414062	4255.129883
2320.335938	4282.255859
2319.257812	4302.414551
2318.179688	4528.955078
2317.101562	4305.614258
2316.023438	4404.577148
2314.945312	4341.260254
2313.865234	4192.219727
2312.787109	4365.296875
2311.707031	4260.318359
2310.628906	4238.759766
2309.548828	4328.370605
2308.468750	4251.235840
2307.388672	4287.566895
2306.308594	4335.459473
2305.228516	4392.592773
2304.148438	4257.649902
2303.068359	4263.878906
2301.988281	4279.358398
2300.906250	4287.894043
2299.826172	4351.924316
2298.744141	4348.884766
2297.662109	4246.446289
2296.580078	4328.940430
2295.500000	4369.812012
2294.417969	4283.594238
2293.333984	4336.009766
2292.251953	4369.930176
2291.169922	4304.538574
2290.087891	4199.917480
2289.003906	4226.917480
2287.921875	4295.455078
2286.837891	4257.812500
2285.753906	4169.419922
2284.669922	4233.318359
2283.585938	4253.369629
2282.501953	4234.208496
2281.417969	4215.053223
2280.333984	4182.072266
2279.250000	4238.999023
2278.164062	4212.938477
2277.080078	4253.710449
2275.994141	4285.253418
2274.910156	4222.341797
2273.824219	4141.025391
2272.738281	4147.240723
2271.652344	4148.849121
2270.566406	4267.857422
2269.480469	4195.793945
2268.394531	4287.140137
2267.306641	4113.861328
2266.220703	4216.691895
2265.132812	4225.186523
2264.046875	4233.677734
2262.958984	4200.779297
2261.871094	4167.891602
2260.783203	4203.970215
2259.695312	4200.968262
2258.607422	4195.669434
2257.519531	4155.912109
2256.431641	4118.464844
2255.343750	4168.300293
2254.253906	4153.825195
2253.166016	4251.849609
2252.076172	4111.116211
2250.986328	4250.425781
2249.896484	4252.008789
2248.808594	4219.176758
2247.718750	4209.294434
2246.626953	4139.784180
2245.537109	4061.124756
2244.447266	4184.252441
2243.357422	4183.551758
2242.265625	4155.347168
2241.175781	4150.067871
2240.083984	4048.559814
2238.992188	4164.713379
2237.900391	4079.269531
2236.808594	4094.616699
2235.716797	4038.978516
2234.625000	4196.262695
2233.533203	4195.559570
2232.441406	4087.296143
2231.347656	4164.407715
2230.255859	4088.214111
2229.162109	4149.288086
2228.068359	4116.575195
2226.976562	4033.567383
2225.882812	4149.488770
2224.789062	4096.218750
2223.695312	4074.963379
2222.601562	4053.714600
2221.505859	4098.729004
2220.412109	3992.963867
2219.318359	4063.096191
2218.222656	4014.460693
2217.126953	4029.769775
2216.033203	4033.659912
2214.937500	4046.677979
2213.841797	4050.563477
2212.746094	3997.406982
2211.650391	4145.017578
2210.554688	4130.637207
2209.457031	4113.981445
2208.361328	4031.208008
2207.265625	3953.021729
2206.167969	4059.487305
2205.070312	4099.827637
2203.974609	4121.925781
2202.876953	4011.881592
2201.779297	4145.599121
2200.681641	4017.368164
2199.583984	4053.126953
2198.484375	3968.210693
2197.386719	4049.490967
2196.289062	3957.775879
2195.189453	4089.091553
2194.089844	3960.998291
2192.992188	3967.157959
2191.892578	3980.138672
2190.792969	4072.704102
2189.693359	4090.209473
2188.593750	4044.058838
2187.494141	4045.653076
2186.394531	3926.806396
2185.292969	3964.772705
2184.193359	3957.292236
2183.091797	3945.271484
2181.992188	4015.008301
2180.890625	3946.217773
2179.789062	4056.793701
2178.687500	4015.256592
2177.585938	4098.550781
2176.484375	3943.568848
2175.382812	4038.189941
2174.279297	3919.562256
2173.177734	3973.333496
2172.076172	3974.933838
2170.972656	3949.328125
2169.869141	3987.199707
2168.765625	3920.805664
2167.664062	4006.254639
2166.560547	3892.301758
2165.457031	3946.013428
2164.351562	4122.008301
2163.248047	3996.770752
2162.144531	3923.648926
2161.039062	3909.407715
2159.935547	4049.076904
2158.830078	3998.612305
2157.724609	3977.577393
2156.621094	3911.306152
2155.515625	3931.005371
2154.410156	3916.776367
2153.304688	4040.475586
2152.197266	4057.882080
2151.091797	3991.652100
2149.986328	3957.083008
2148.878906	3967.715820
2147.773438	3973.826416
2146.666016	3894.102051
2145.558594	3920.548340
2144.451172	3976.339600
2143.343750	3939.549316
2142.236328	4040.463135
2141.128906	3924.684082
2140.021484	3924.024414
2138.912109	4042.938477
2137.804688	4100.907715
2136.695312	3874.683838
2135.587891	3846.972900
2134.478516	3972.583008
2133.369141	3992.203125
2132.259766	3890.109619
2131.150391	3891.709229
2130.041016	3929.356934
2128.931641	4014.298584
2127.822266	3889.746338
2126.710938	3871.076904
2125.601562	3863.671387
2124.490234	4009.348145
2123.380859	3961.407227
2122.269531	3841.468750
2121.158203	3935.324463
2120.046875	3981.905518
2118.935547	3954.244385
2117.824219	3955.828125
2116.710938	4036.109863
2115.599609	3821.856445
2114.488281	3929.106689
2113.375000	3930.693115
2112.261719	3986.207275
2111.150391	4012.496338
2110.037109	3973.634766
2108.923828	3862.917969
2107.810547	3974.543213
2106.697266	3917.746338
2105.583984	3957.492676
2104.468750	3923.161133
2103.355469	3965.136719
2102.240234	3951.007812
2101.126953	4042.315674
2100.011719	4014.720947
2098.896484	3993.863037
2097.781250	3896.780273
2096.666016	3893.882568
2095.550781	3929.088867
2094.435547	3959.801025
2093.320312	3963.615723
2092.203125	3781.490479
2091.087891	3921.964111
2089.970703	3981.769287
2088.855469	3916.165283
2087.738281	3875.209229
2086.621094	3849.935059
2085.503906	3938.805176
2084.386719	3900.103027
2083.269531	4000.120361
2082.152344	3934.578857
2081.033203	3880.241455
2079.916016	3899.712402
2078.796875	3923.648438
2077.679688	3949.811279
2076.560547	3794.935059
2075.441406	3966.357422
2074.322266	3898.663574
2073.203125	3953.852295
2072.083984	3834.813965
2070.964844	3934.655762
2069.845703	3922.829346
2068.724609	3881.986816
2067.605469	3827.766357
2066.484375	3831.584717
2065.365234	3935.804443
2064.244141	3946.295410
2063.123047	3874.256592
2062.001953	3871.373779
2060.880859	3895.247803
2059.759766	3928.030762
2058.636719	3782.488525
2057.515625	3911.106934
2056.394531	3865.884277
2055.271484	3952.116943
2054.148438	3833.397217
2053.027344	3926.287109
2051.904297	3874.411621
2050.781250	3873.758545
2049.658203	3893.138672
2048.535156	3883.580322
2047.410156	3934.104492
2046.287109	3855.573242
2045.164062	3948.348877
2044.039062	3878.737549
2042.914062	3873.636230
2041.791016	3968.584717
2040.666016	3792.304688
2039.541016	3842.783691
2038.416016	3906.578613
2037.291016	3759.281006
2036.166016	4020.774902
2035.039062	3833.528564
2033.914062	3906.164307
2032.787109	3834.455811
2031.662109	3918.166016
2030.535156	3862.016357
2029.408203	3930.159180
2028.281250	3889.557617
2027.156250	3924.396240
2026.027344	3863.846680
2024.900391	3854.323975
2023.773438	3787.154541
2022.646484	3799.817139
2021.517578	3803.608887
2020.390625	3882.749756
2019.261719	3944.136963
2018.132812	3803.898926
2017.003906	3887.429199
2015.875000	3873.485107
2014.746094	3770.972900
2013.617188	3858.893799
2012.488281	3920.222412
2011.357422	3755.784424
2010.228516	3894.557861
2009.097656	3843.014160
2007.968750	3835.729248
2006.837891	3852.775146
2005.707031	3768.094238
2004.576172	3760.825195
2003.445312	3784.506592
2002.314453	3896.587891
2001.183594	3800.907227
2000.052734	3853.292236
1998.919922	3799.623535
1997.789062	3823.277588
1996.656250	3846.923584
1995.523438	3806.530518
1994.390625	3794.849609
1993.259766	3906.776611
1992.126953	3791.360840
1990.992188	3841.469238
1989.859375	3809.934814
1988.726562	3820.319824
1987.593750	3912.299316
1986.458984	3845.488770
1985.324219	3686.107178
1984.191406	3709.730957
1983.056641	3739.958252
1981.921875	3763.564697
1980.787109	3767.334961
1979.652344	3779.914795
1978.517578	3823.323486
1977.380859	3690.557129
1976.246094	3696.538086
1975.111328	3733.334717
1973.974609	3737.105469
1972.837891	3826.695068
1971.703125	3852.449707
1970.566406	3794.604492
1969.429688	3862.144287
1968.292969	3747.142090
1967.154297	3634.377197
1966.017578	3803.030518
1964.880859	3754.033447
1963.742188	3628.138916
1962.605469	3768.144043
1961.466797	3646.683105
1960.328125	3751.494873
1959.189453	3693.762939
1958.052734	3846.836182
1956.912109	3707.880859
1955.773438	3755.542480
1954.634766	3822.938965
1953.496094	3747.689453
1952.355469	3694.403809
1951.216797	3728.874023
1950.076172	3640.520020
1948.935547	3795.586670
1947.794922	3742.328369
1946.654297	3561.953613
1945.513672	3686.272217
1944.373047	3630.867676
1943.232422	3763.895752
1942.091797	3717.258545
1940.949219	3668.446777
1939.808594	3733.518555
1938.666016	3629.986084
1937.523438	3616.237549
1936.380859	3779.773193
1935.240234	3582.189697
1934.095703	3686.602295
1932.953125	3664.103027
1931.810547	3578.183838
1930.667969	3665.049316
1929.523438	3557.294678
1928.380859	3598.227295
1927.236328	3630.403076
1926.091797	3627.603271
1924.949219	3557.071045
1923.804688	3628.559326
1922.660156	3575.524414
1921.515625	3679.742432
1920.369141	3628.899902
1919.224609	3693.777832
1918.080078	3555.641357
1916.933594	3528.851074
1915.787109	3650.443848
1914.642578	3573.469482
1913.496094	3618.670166
1912.349609	3687.844727
1911.203125	3693.761719
1910.056641	3610.291016
1908.910156	3598.780518
1907.761719	3685.346436
1906.615234	3606.277344
1905.466797	3566.450684
1904.320312	3565.846436
1903.171875	3478.125732
1902.023438	3660.449951
1900.875000	3570.565430
1899.726562	3548.192383
1898.578125	3612.884277
1897.429688	3529.581299
1896.281250	3526.807373
1895.130859	3600.170898
1893.982422	3543.011719
1892.832031	3546.760254
1891.681641	3604.863037
1890.531250	3434.691406
1889.382812	3488.446289
1888.232422	3513.932129
1887.080078	3580.691650
1885.929688	3603.980713
1884.779297	3483.908936
1883.626953	3544.124268
1882.476562	3560.893555
1881.324219	3595.024414
1880.173828	3551.003906
1879.021484	3515.678955
1877.869141	3536.780762
1876.716797	3553.536377
1875.564453	3561.609863
1874.412109	3491.607422
1873.257812	3410.786865
1872.105469	3624.836914
1870.951172	3444.311279
1869.798828	3484.904541
1868.644531	3516.816162
1867.490234	3559.549316
1866.335938	3489.629395
1865.181641	3510.695068
1864.027344	3419.152832
1862.873047	3561.464355
1861.718750	3547.872070
1860.562500	3586.227051
1859.408203	3574.798828
1858.251953	3654.243652
1857.095703	3575.748779
1855.939453	3583.793213
1854.785156	3511.823975
1853.628906	3565.280029
1852.470703	3447.941895
1851.314453	3555.424316
1850.158203	3585.074463
1849.000000	3469.953125
1847.843750	3480.165283
1846.685547	3568.129639
1845.529297	3474.664551
1844.371094	3590.668945
1843.212891	3531.771973
1842.054688	3492.320801
1840.896484	3506.833984
1839.736328	3566.653809
1838.578125	3596.250488
1837.419922	3526.617188
1836.259766	3489.356201
1835.101562	3600.886963
1833.941406	3516.197021
1832.781250	3522.066406
1831.621094	3515.002686
1830.460938	3673.857422
1829.300781	3608.601562
1828.140625	3539.059814
1826.978516	3598.760986
1825.818359	3501.251465
1824.656250	3569.550049
1823.496094	3558.180908
1822.333984	3525.293213
1821.171875	3479.505859
1820.009766	3552.064209
1818.847656	3482.625488
1817.685547	3436.868164
1816.523438	3524.449219
1815.359375	3452.900146
1814.197266	3579.141602
1813.033203	3451.726318
1811.871094	3507.010986
1810.707031	3506.415039
1809.542969	3523.004150
1808.378906	3460.118896
1807.214844	3523.953857
1806.050781	3450.354004
1804.886719	3524.902344
1803.720703	3479.229736
1802.556641	3536.579590
1801.390625	3520.958984
1800.226562	3490.326660
1799.060547	3506.892090
1797.894531	3508.440186
1796.728516	3456.383789
1795.562500	3541.547607
1794.396484	3573.096680
1793.228516	3493.195312
1792.062500	3563.310303
1790.896484	3410.598389
1789.728516	3499.980957
1788.560547	3608.607422
1787.394531	3580.157227
1786.226562	3543.153320
1785.058594	3484.756592
1783.890625	3469.182373
1782.720703	3519.947021
1781.552734	3474.420166
1780.384766	3510.192871
1779.214844	3451.850830
1778.046875	3457.678223
1776.876953	3504.125000
1775.707031	3518.491943
1774.537109	3513.618408
1773.367188	3504.472900
1772.197266	3533.787598
1771.027344	3501.143799
1769.857422	3485.597168
1768.685547	3540.524658
1767.515625	3392.603027
1766.343750	3443.258057
1765.171875	3451.208984
1764.001953	3461.291260
1762.830078	3403.094482
1761.658203	3504.910645
1760.484375	3544.838379
1759.312500	3441.874023
1758.140625	3481.798584
1756.966797	3436.438232
1755.794922	3472.086914
1754.621094	3501.330322
1753.449219	3387.807129
1752.275391	3502.268066
1751.101562	3416.472656
1749.927734	3475.519531
1748.753906	3455.764160
1747.578125	3387.051270
1746.404297	3541.855957
1745.228516	3447.613525
1744.054688	3474.687500
1742.878906	3450.693604
1741.703125	3477.757568
1740.529297	3453.770996
1739.353516	3353.244385
1738.177734	3569.522949
1737.000000	3449.879883
1735.824219	3404.661377
1734.648438	3489.076904
1733.470703	3503.353760
1732.294922	3422.038086
1731.117188	3476.673828
1729.939453	3459.093506
1728.761719	3473.365479
1727.583984	3447.300537
1726.406250	3412.754883
1725.228516	3586.177002
1724.050781	3426.442627
1722.871094	3351.613770
1721.693359	3469.813232
1720.513672	3443.774902
1719.333984	3479.230957
1718.156250	3525.273682
1716.976562	3401.743408
1715.796875	3464.736328
1714.615234	3498.045166
1713.435547	3444.489014
1712.255859	3418.485107
1711.074219	3468.725586
1709.894531	3438.491699
1708.712891	3480.243896
1707.531250	3547.380371
1706.351562	3521.380615
1705.169922	3520.779785
1703.988281	3505.370605
1702.804688	3411.706543
1701.623047	3495.715088
1700.441406	3425.343018
1699.257812	3416.302246
1698.076172	3411.491699
1696.892578	3438.382812
1695.708984	3534.992188
1694.525391	3435.096436
1693.341797	3440.846680
1692.158203	3558.524902
1690.974609	3498.794678
1689.791016	3464.418701
1688.605469	3489.156982
1687.421875	3469.567139
1686.236328	3483.745361
1685.052734	3398.761475
1683.867188	3446.696533
1682.681641	3473.524902
1681.496094	3544.625488
1680.310547	3438.605957
1679.123047	3427.479248
1677.937500	3511.196289
1676.751953	3434.737305
1675.564453	3457.325684
1674.378906	3479.906494
1673.191406	3531.965088
1672.003906	3457.659912
1670.816406	3511.809814
1669.628906	3532.260254
1668.441406	3491.667725
1667.251953	3558.409424
1666.064453	3540.969727
1664.876953	3540.364502
1663.687500	3449.320068
1662.498047	3568.594971
1661.310547	3456.551270
1660.121094	3481.186523
1658.931641	3566.765625
1657.742188	3456.880615
1656.550781	3531.928955
1655.361328	3667.872559
1654.171875	3509.717773
1652.980469	3635.118408
1651.789062	3504.318604
1650.599609	3627.577881
1649.408203	3589.176758
1648.216797	3672.506104
1647.025391	3518.708252
1645.833984	3587.335938
1644.640625	3672.719971
1643.449219	3659.509033
1642.257812	3570.818359
1641.064453	3662.450195
1639.871094	3672.304199
1638.679688	3703.111572
1637.486328	3750.671143
1636.292969	3754.219482
1635.099609	3824.794922
1633.906250	3740.369629
1632.710938	3796.265381
1631.517578	3810.270752
1630.322266	3887.067139
1629.128906	3945.001465
1627.933594	3948.511475
1626.738281	3774.189697
1625.542969	3901.141602
1624.347656	3959.033203
1623.152344	3962.537842
1621.957031	4024.580322
1620.761719	3965.362305
1619.564453	4044.102539
1618.369141	4076.844238
1617.171875	4124.199219
1615.974609	4035.759521
1614.777344	4001.651855
1613.580078	4103.288086
1612.382812	4144.342285
1611.185547	3951.585205
1609.988281	4007.260742
1608.789062	4102.565430
1607.591797	4114.381348
1606.392578	4074.041748
1605.195312	3933.603271
1603.996094	4003.830811
1602.796875	4042.759521
1601.597656	4073.336426
1600.398438	4099.733887
1599.197266	4074.024902
1597.998047	4029.572754
1596.798828	4112.209961
1595.597656	4053.186279
1594.396484	4085.811279
1593.197266	3993.498291
1591.996094	4103.147461
1590.794922	3975.478760
1589.593750	3931.095703
1588.392578	4028.214355
1587.189453	3994.238770
1585.988281	3891.635498
1584.785156	3899.287109
1583.583984	4015.057617
1582.380859	3848.056885
1581.177734	3947.167725
1579.974609	3769.844727
1578.771484	3987.371338
1577.568359	3812.179443
1576.365234	3850.991211
1575.162109	3796.335205
1573.957031	3781.149414
1572.753906	3784.653076
1571.548828	3815.139893
1570.343750	3791.656738
1569.138672	3797.231689
1567.933594	3798.655029
1566.728516	3719.181152
1565.523438	3712.321533
1564.318359	3695.096436
1563.111328	3669.583984
1561.906250	3681.391846
1560.699219	3753.297852
1559.494141	3711.211182
1558.287109	3609.056885
1557.080078	3701.652344
1555.873047	3589.178955
1554.666016	3654.826416
1553.457031	3575.525391
1552.250000	3589.401855
1551.042969	3543.253662
1549.833984	3579.893066
1548.625000	3529.624023
1547.417969	3568.321533
1546.208984	3513.935059
1545.000000	3641.540527
1543.791016	3475.513428
1542.580078	3501.790039
1541.371094	3342.044189
1540.162109	3539.850830
1538.951172	3557.838135
1537.740234	3472.531494
1536.531250	3515.308838
1535.320312	3399.062744
1534.109375	3369.573486
1532.898438	3362.802002
1531.687500	3372.544434
1530.474609	3398.792480
1529.263672	3447.727295
1528.052734	3527.589111
1526.839844	3380.541260
1525.626953	3429.453613
1524.416016	3461.854248
1523.203125	3250.986572
1521.990234	3394.708496
1520.777344	3311.693604
1519.562500	3333.789551
1518.349609	3327.036621
1517.136719	3314.106689
1515.921875	3356.784180
1514.707031	3298.554932
1513.494141	3372.100098
1512.279297	3357.112549
1511.064453	3364.767578
1509.849609	3358.016357
1508.632812	3330.695068
1507.417969	3249.903564
1506.203125	3286.362793
1504.986328	3388.607666
1503.771484	3324.294189
1502.554688	3442.941162
1501.337891	3306.710449
1500.121094	3226.005615
1498.904297	3268.593994
1497.687500	3292.680908
1496.470703	3376.317383
1495.251953	3271.015137
1494.035156	3319.725098
1492.816406	3345.838867
1491.599609	3248.804932
1490.380859	3299.545166
1489.162109	3335.906494
1487.943359	3304.563965
1486.724609	3254.774170
1485.505859	3350.590088
1484.285156	3302.859375
1483.066406	3263.344238
1481.845703	3346.811768
1480.626953	3270.417969
1479.406250	3202.245605
1478.185547	3353.278564
1476.964844	3244.153564
1475.744141	3284.549805
1474.523438	3310.600586
1473.300781	3377.582520
1472.080078	3323.787842
1470.857422	3153.371826
1469.636719	3300.138428
1468.414062	3256.612549
1467.191406	3335.817139
1465.968750	3259.581543
1464.746094	3377.604492
1463.523438	3285.034180
1462.300781	3182.276123
1461.076172	3230.772217
1459.853516	3215.914062
1458.628906	3231.702637
1457.406250	3314.886475
1456.181641	3330.652344
1454.957031	3254.534424
1453.732422	3194.773926
1452.507812	3202.387695
1451.283203	3267.138184
1450.056641	3240.051270
1448.832031	3351.692383
1447.605469	3395.986816
1446.380859	3334.223633
1445.154297	3345.882812
1443.927734	3184.258789
1442.701172	3242.818848
1441.474609	3368.608398
1440.248047	3270.227051
1439.019531	3249.291748
1437.792969	3258.916016
1436.564453	3358.141602
1435.337891	3363.671387
1434.109375	3326.447754
1432.880859	3285.166260
1431.652344	3319.196289
1430.423828	3328.797852
1429.195312	3318.052246
1427.964844	3356.126709
1426.736328	3288.437256
1425.507812	3306.170166
1424.277344	3323.896973
1423.046875	3298.932617
1421.816406	3326.815430
1420.585938	3354.688721
1419.355469	3360.205078
1418.125000	3422.593262
1416.894531	3399.663574
1415.662109	3421.413086
1414.431641	3394.430908
1413.199219	3357.308838
1411.968750	3403.407471
1410.736328	3433.257324
1409.503906	3379.917236
1408.271484	3379.334229
1407.039062	3362.526855
1405.806641	3432.916748
1404.572266	3395.832031
1403.339844	3427.678467
1402.105469	3392.633789
1400.871094	3497.416748
1399.638672	3494.787354
1398.404297	3384.801025
1397.169922	3349.787598
1395.935547	3549.676025
1394.699219	3439.737061
1393.464844	3493.797119
1392.230469	3477.003418
1390.994141	3490.567871
1389.757812	3368.575195
1388.523438	3422.609863
1387.287109	3511.007812
1386.050781	3461.870850
1384.814453	3449.142578
1383.576172	3420.247070
1382.339844	3419.656738
1381.103516	3507.978027
1379.865234	3523.535400
1378.626953	3502.726807
1377.390625	3524.338379
1376.152344	3455.072510
1374.914062	3480.722656
1373.675781	3449.842041
1372.435547	3527.959229
1371.197266	3440.578613
1369.958984	3423.843750
1368.718750	3528.148682
1367.480469	3495.268799
1366.240234	3387.788330
1365.000000	3492.045166
1363.759766	3368.475342
1362.519531	3492.854004
1361.279297	3407.614258
1360.037109	3479.558350
1358.796875	3478.957031
1357.554688	3456.200684
1356.314453	3322.695557
1355.072266	3436.885498
1353.830078	3478.565918
1352.587891	3379.341797
1351.345703	3495.474609
1350.103516	3492.858398
1348.861328	3347.414551
1347.617188	3453.435791
1346.375000	3420.663330
1345.130859	3321.551270
1343.886719	3505.922607
1342.644531	3306.333252
1341.400391	3337.915039
1340.156250	3323.273193
1338.910156	3270.467285
1337.666016	3316.098145
1336.421875	3391.835938
1335.175781	3322.982666
1333.931641	3308.355469
1332.685547	3327.854736
1331.439453	3363.401611
1330.193359	3292.593750
1328.947266	3261.932617
1327.701172	3373.690918
1326.455078	3274.841797
1325.207031	3306.356445
1323.960938	3241.633301
1322.712891	3231.050537
1321.466797	3168.366455
1320.218750	3159.803467
1318.970703	3185.300049
1317.722656	3134.674072
1316.474609	3202.221436
1315.224609	3197.662598
1313.976562	3141.054443
1312.726562	3138.509277
1311.478516	3220.017334
1310.228516	3151.429199
1308.978516	3124.876221
1307.728516	3178.341064
1306.478516	3145.792969
1305.228516	3087.261963
1303.978516	3114.715820
1302.728516	3070.202393
1301.476562	3145.613037
1300.224609	3061.146484
1298.974609	3150.517090
1297.722656	2964.208984
1296.470703	3059.556396
1295.218750	3084.984131
1293.966797	3058.496582
1292.714844	3099.884033
1291.460938	3087.372803
1290.208984	3092.823975
1288.955078	3026.452393
1287.701172	3041.885498
1286.449219	2945.630371
1285.195312	3040.831299
1283.941406	3008.406250
1282.685547	3083.630127
1281.431641	3045.229736
1280.177734	2988.908936
1278.921875	3036.205078
1277.667969	3079.500977
1276.412109	3059.051514
1275.156250	3046.573975
1273.900391	2982.337646
1272.644531	2985.801758
1271.388672	2965.382324
1270.132812	3032.522949
1268.875000	2946.448730
1267.619141	2920.078857
1266.361328	3001.113770
1265.105469	2952.870117
1263.847656	2914.583740
1262.589844	3069.124756
1261.332031	2947.359375
1260.074219	2970.693115
1258.814453	3003.952393
1257.556641	2866.370117
1256.296875	3022.770996
1255.039062	2915.018311
1253.779297	2958.190674
1252.519531	2985.467773
1251.259766	2853.961426
1250.000000	2964.588623
1248.740234	2930.346436
1247.480469	2949.674561
1246.220703	3002.711670
1244.958984	2865.366943
1243.697266	2989.773926
1242.437500	2985.290527
1241.175781	2907.477539
1239.914062	2906.972900
1238.652344	2888.637207
1237.390625	2955.486084
1236.126953	2851.984619
1234.865234	2887.133057
1233.601562	2910.390137
1232.339844	2864.356201
1231.076172	2851.983643
1229.812500	2885.128662
1228.548828	2797.574463
1227.285156	2850.498291
1226.021484	2784.736084
1224.757812	2906.854492
1223.492188	2991.365479
1222.228516	2810.960205
1220.962891	2853.953125
1219.697266	2879.146484
1218.433594	2858.889160
1217.167969	2793.204590
1215.900391	2830.245117
1214.634766	2770.512207
1213.369141	2807.543945
1212.103516	2805.082031
1210.835938	2832.226074
1209.568359	2855.414062
1208.302734	2801.646973
1207.035156	2771.570557
1205.767578	2808.562500
1204.500000	2782.438965
1203.230469	2803.643311
1201.962891	2935.231445
1200.695312	2761.279053
1199.425781	2819.916748
1198.156250	2799.724121
1196.888672	2797.267578
1195.619141	2763.298584
1194.349609	2790.387207
1193.080078	2732.804688
1191.808594	2734.297852
1190.539062	2696.426758
1189.269531	2762.864990
1187.998047	2852.889893
1186.726562	2726.494873
1185.457031	2775.191406
1184.185547	2723.580078
1182.914062	2709.343506
1181.642578	2704.940674
1180.369141	2844.017578
1179.097656	2725.615967
1177.824219	2756.578125
1176.552734	2689.307861
1175.279297	2739.906250
1174.005859	2784.595703
1172.732422	2725.208984
1171.458984	2736.513184
1170.185547	2724.260498
1168.912109	2678.651611
1167.638672	2744.895020
1166.363281	2744.417236
1165.087891	2679.214844
1163.814453	2641.489014
1162.539062	2674.360840
1161.263672	2615.085205
1159.988281	2653.829834
1158.712891	2770.946777
1157.435547	2672.499023
1156.160156	2713.171875
1154.884766	2706.823730
1153.607422	2596.688232
1152.330078	2631.479004
1151.052734	2732.816406
1149.775391	2622.733643
1148.498047	2630.104492
1147.220703	2658.995117
1145.943359	2607.669678
1144.664062	2640.465820
1143.386719	2595.028076
1142.107422	2641.501221
1140.828125	2553.071533
1139.548828	2579.990234
1138.269531	2599.082764
1136.990234	2549.783447
1135.710938	2566.920898
1134.431641	2601.630615
1133.150391	2552.356445
1131.871094	2598.771484
1130.589844	2602.222900
1129.308594	2545.166748
1128.027344	2638.393799
1126.746094	2544.279541
1125.464844	2524.328125
1124.183594	2566.798096
1122.900391	2558.550049
1121.619141	2517.158936
1120.335938	2536.214355
1119.054688	2524.077637
1117.771484	2605.485107
1116.488281	2529.042725
1115.205078	2483.795898
1113.921875	2535.951660
1112.636719	2562.772949
1111.353516	2628.525879
1110.068359	2491.797363
1108.785156	2532.236572
1107.500000	2570.715576
1106.214844	2513.842041
1104.929688	2527.020996
1103.644531	2577.150635
1102.359375	2514.471191
1101.074219	2471.257080
1099.787109	2515.537842
1098.501953	2552.028564
1097.214844	2516.603271
1095.927734	2549.194824
1094.640625	2430.248779
1093.353516	2445.363037
1092.066406	2545.918457
1090.779297	2494.991699
1089.492188	2409.139648
1088.203125	2435.892334
1086.916016	2501.447998
1085.626953	2462.205811
1084.337891	2492.814941
1083.048828	2465.225342
1081.759766	2435.706055
1080.470703	2367.418701
1079.181641	2448.425537
1077.890625	2376.283203
1076.601562	2418.501953
1075.310547	2499.457275
1074.019531	2487.397461
1072.728516	2469.531006
1071.437500	2339.350830
1070.146484	2387.347412
1068.855469	2414.032715
1067.564453	2371.029297
1066.271484	2318.364746
1064.980469	2389.549316
1063.687500	2447.167480
1062.394531	2431.266602
1061.103516	2396.032471
1059.810547	2368.544678
1058.515625	2424.192627
1057.222656	2359.985596
1055.929688	2330.585693
1054.634766	2368.821533
1053.341797	2306.589355
1052.046875	2354.473145
1050.751953	2435.169434
1049.457031	2328.549561
1048.162109	2297.255127
1046.867188	2360.547607
1045.572266	2352.415771
1044.275391	2324.992188
1042.980469	2235.846191
1041.683594	2331.894287
1040.388672	2319.915771
1039.091797	2373.497070
1037.794922	2336.454346
1036.498047	2345.682861
1035.199219	2341.418457
1033.902344	2269.718750
1032.605469	2261.616211
1031.306641	2249.664062
1030.007812	2334.003174
1028.710938	2345.147461
1027.412109	2319.711182
1026.113281	2311.606445
1024.812500	2265.016357
1023.513672	2285.784668
1022.214844	2308.469238
1020.914062	2283.061279
1019.615234	2357.660645
1018.314453	2247.653320
1017.013672	2254.949463
1015.712891	2369.877197
1014.412109	2290.672607
1013.111328	2261.450928
1011.810547	2238.002686
1010.507812	2316.359375
1009.207031	2237.219238
1007.904297	2365.468994
1006.601562	2355.456543
1005.298828	2264.834473
1003.996094	2291.304199
1002.693359	2281.309326
1001.390625	2246.379639
1000.087891	2267.084473
998.783203	2331.888184
997.480469	2277.794189
996.175781	2265.893311
994.871094	2303.829590
993.566406	2299.593506
992.261719	2253.206787
990.957031	2174.270020
989.652344	2256.247803
988.345703	2252.022705
987.041016	2282.262451
985.734375	2220.604492
984.427734	2252.752930
983.121094	2267.667236
981.814453	2225.177002
980.507812	2240.090820
979.201172	2310.465820
977.894531	2264.165527
976.585938	2250.384766
975.279297	2171.613525
973.970703	2293.555664
972.662109	2205.249268
971.353516	2202.952148
970.044922	2193.014404
968.736328	2257.568359
967.427734	2211.341553
966.117188	2260.595215
964.808594	2239.200195
963.498047	2225.447266
962.187500	2223.148682
960.876953	2251.377930
959.566406	2222.368896
958.255859	2220.071777
956.945312	2149.125244
955.634766	2207.853271
954.322266	2211.278320
953.011719	2212.796387
951.699219	2258.142578
950.386719	2114.851074
949.074219	2205.916992
947.761719	2182.674561
946.449219	2149.918945
945.136719	2223.794922
943.822266	2204.368652
942.509766	2183.045898
941.195312	2285.420898
939.880859	2178.474365
938.566406	2149.557861
937.251953	2175.807617
935.937500	2158.311279
934.623047	2169.339844
933.308594	2170.859863
931.992188	2141.969727
930.677734	2170.097656
929.361328	2181.115967
928.044922	2197.829346
926.728516	2104.379639
925.412109	2124.898193
924.095703	2149.206787
922.779297	2093.779541
921.460938	2157.941406
920.144531	2072.170654
918.826172	2066.114746
917.507812	2056.267090
916.189453	2114.700195
914.871094	2085.884766
913.552734	2129.124512
912.234375	2149.601807
910.916016	2145.433594
909.595703	2154.531250
908.275391	2112.471436
906.957031	2100.734619
905.636719	2117.410645
904.316406	2028.039673
902.996094	2093.947266
901.675781	2104.936768
900.353516	2125.385254
899.033203	2062.566895
897.710938	2124.637939
896.390625	2056.166748
895.068359	2112.543213
893.746094	2129.190186
892.423828	2143.940430
891.101562	2075.513916
889.777344	2112.947510
888.455078	2099.348633
887.132812	2127.318359
885.808594	2009.830078
884.484375	2064.246094
883.160156	2116.754639
881.835938	2086.175049
880.511719	2108.459473
879.187500	1970.317261
877.863281	2077.526367
876.537109	2058.294678
875.212891	2056.046143
873.886719	2065.114014
872.560547	2013.838989
871.234375	2087.010742
869.908203	2092.298340
868.582031	2012.775879
867.255859	2048.223145
865.927734	2083.657715
864.601562	2047.501953
863.273438	2018.892090
861.945312	2054.312988
860.617188	2095.369141
859.289062	2130.763916
857.960938	1972.303345
856.632812	2067.919434
855.302734	2129.638428
853.974609	2040.857544
852.644531	2023.572266
851.316406	2043.899292
849.986328	2113.098633
848.656250	2022.503174
847.326172	2024.026245
845.994141	1974.815918
844.664062	2064.643555
843.333984	2037.983154
842.001953	1998.186279
840.669922	2071.062988
839.339844	2038.783447
838.007812	2068.456055
836.675781	2077.475098
835.341797	2000.178955
834.009766	2057.982666
832.677734	2035.111816
831.343750	2023.500977
830.009766	2045.644531
828.677734	2088.401611
827.343750	2024.305420
826.009766	2059.554932
824.675781	2040.454834
823.339844	2045.715210
822.005859	2002.274658
820.669922	2048.739258
819.335938	2033.398926
818.000000	2076.097412
816.664062	2086.961426
815.328125	2026.709106
813.992188	2089.967529
812.656250	2069.020752
811.320312	2018.155151
809.982422	2021.539307
808.646484	1978.178711
807.308594	1951.658081
805.970703	1999.909668
804.632812	1992.081787
803.294922	2014.151245
801.957031	1989.510742
800.617188	1992.895142
799.279297	1930.918335
797.939453	1999.660156
796.601562	1965.705322
795.261719	1982.156372
793.921875	1989.270874
792.582031	1957.201538
791.242188	1932.605103
789.902344	1978.891968
788.560547	2038.215820
787.220703	2008.024536
785.878906	1942.425415
784.537109	1891.759644
783.195312	1939.875977
781.853516	1937.670166
780.511719	1928.013916
779.169922	1866.211304
777.828125	1906.849121
776.484375	1906.512329
775.140625	1935.959595
773.798828	1954.229248
772.455078	1922.249634
771.111328	1869.815674
769.767578	1908.549194
768.423828	1958.428101
767.078125	1904.155762
765.734375	1879.649658
764.388672	1896.047363
763.042969	1929.166016
761.699219	1899.093628
760.353516	1880.179077
759.007812	1864.986328
757.660156	1914.801758
756.314453	1851.328735
754.968750	1912.268311
753.621094	1898.936523
752.273438	1900.456665
750.927734	1900.120605
749.580078	1936.889893
748.232422	1897.593750
746.882812	1873.148438
745.535156	1854.274414
744.187500	1824.283325
742.837891	1894.398193
741.488281	1825.491333
740.140625	1908.551758
738.791016	1847.077148
737.441406	1878.239624
736.091797	1813.088013
734.740234	1816.470581
733.390625	1838.365112
732.039062	1873.208740
730.689453	1796.999878
729.337891	1896.600342
727.986328	1801.913940
726.634766	1825.640991
725.283203	1819.769775
723.931641	1867.522583
722.578125	1863.494507
721.226562	1815.106812
719.873047	1879.467285
718.519531	1840.332397
717.167969	1862.175293
715.814453	1861.845581
714.460938	1806.113770
713.105469	1802.101074
711.751953	1820.242798
710.396484	1851.298462
709.042969	1799.298462
707.687500	1832.191650
706.332031	1754.386353
704.976562	1802.031494
703.621094	1794.335693
702.265625	1736.860107
700.910156	1804.760864
699.552734	1800.754883
698.197266	1842.820679
696.839844	1860.919067
695.482422	1775.849731
694.125000	1793.953369
692.767578	1821.258179
691.410156	1846.712158
690.050781	1792.999756
688.693359	1801.884766
687.333984	1827.328247
685.976562	1814.125122
684.617188	1760.456421
683.257812	1756.465942
681.898438	1791.093750
680.539062	1790.776123
679.177734	1773.914307
677.818359	1780.951538
676.457031	1740.208496
675.097656	1782.157227
673.736328	1768.982544
672.375000	1755.812500
671.013672	1810.589966
669.652344	1775.385376
668.289062	1747.535767
666.927734	1716.025391
665.564453	1789.120728
664.203125	1700.739136
662.839844	1716.946533
661.476562	1756.990356
660.113281	1791.518799
658.750000	1793.034302
657.386719	1779.884766
656.021484	1750.245483
654.658203	1766.426392
653.292969	1707.486694
651.927734	1784.116821
650.562500	1723.363403
649.197266	1735.875122
647.832031	1783.166870
646.466797	1669.362915
645.099609	1740.441162
643.734375	1763.919434
642.367188	1719.699097
641.000000	1666.348511
639.634766	1682.511963
638.265625	1749.867432
636.898438	1725.790527
635.531250	1752.901733
634.164062	1758.072876
632.794922	1730.352661
631.425781	1708.122925
630.058594	1709.645996
628.689453	1714.821045
627.320312	1659.739502
625.951172	1756.199829
624.580078	1684.703247
623.210938	1688.053711
621.839844	1746.140869
620.470703	1676.508179
619.099609	1621.491699
617.728516	1712.384888
616.357422	1737.606689
614.986328	1709.953247
613.615234	1704.181274
612.242188	1671.076416
610.871094	1619.763184
609.498047	1695.985962
608.125000	1690.220337
606.751953	1715.414307
605.378906	1706.005737
604.005859	1711.163452
602.632812	1672.637939
601.259766	1708.735229
599.884766	1710.250732
598.509766	1593.524658
597.136719	1629.616577
595.761719	1669.332520
594.386719	1639.945679
593.011719	1546.946167
591.634766	1626.639893
590.259766	1686.316528
588.882812	1651.496704
587.507812	1656.652466
586.130859	1652.725220
584.753906	1612.482300
583.376953	1679.370117
582.000000	1673.625610
580.623047	1629.770386
579.244141	1669.400757
577.867188	1605.605103
576.488281	1636.156006
575.109375	1664.882324
573.730469	1655.519531
572.351562	1597.210327
570.972656	1654.930054
569.593750	1629.263062
568.212891	1609.041138
566.833984	1663.104492
565.453125	1612.090820
564.072266	1591.882568
562.693359	1560.817261
561.310547	1605.798584
559.929688	1560.261353
558.548828	1570.841797
557.167969	1575.990112
555.785156	1534.100464
554.402344	1593.516235
553.021484	1542.596069
551.638672	1573.059204
550.255859	1601.703613
548.871094	1552.616455
547.488281	1583.061279
546.105469	1546.642700
544.720703	1546.366943
543.337891	1567.765625
541.953125	1572.903687
540.568359	1565.401123
539.183594	1566.927368
537.798828	1563.038208
536.412109	1528.472656
535.027344	1540.829956
533.640625	1538.751221
532.255859	1506.011963
530.869141	1530.989380
529.482422	1588.411255
528.095703	1528.640747
526.708984	1531.972778
525.320312	1538.907471
523.933594	1553.046387
522.544922	1563.577515
521.156250	1550.691406
519.769531	1445.973389
518.380859	1616.752686
516.992188	1519.260376
515.601562	1522.588745
514.212891	1525.916016
512.824219	1525.643677
511.433594	1548.755615
510.042969	1530.494629
508.652344	1461.891968
507.261719	1459.833130
505.871094	1466.762573
504.480469	1572.534546
503.089844	1507.566772
501.697266	1510.890747
500.306641	1487.270142
498.914062	1531.902100
497.521484	1488.534668
496.128906	1529.559814
494.736328	1541.851318
493.343750	1494.915894
491.949219	1458.762939
490.556641	1499.763916
489.162109	1553.305664
487.769531	1502.814819
486.375000	1457.721069
484.980469	1513.034180
483.583984	1536.064697
482.189453	1442.603516
480.794922	1499.681274
479.398438	1433.130981
478.003906	1463.323486
476.607422	1509.622070
475.210938	1482.495483
473.814453	1453.588501
472.417969	1464.067505
471.021484	1454.858398
469.623047	1476.068481
468.226562	1547.358765
466.828125	1450.501221
465.429688	1482.429810
464.031250	1489.316406
462.632812	1515.863770
461.234375	1456.613281
459.835938	1443.844238
458.435547	1459.665649
457.037109	1489.771606
455.636719	1448.427734
454.236328	1533.880249
452.835938	1510.396484
451.435547	1458.360718
450.035156	1402.774170
448.634766	1468.545288
447.232422	1478.986938
445.830078	1462.668701
444.429688	1423.171631
443.027344	1456.796021
441.625000	1422.662476
440.222656	1450.927246
438.820312	1402.549683
437.416016	1400.516846
436.013672	1439.459351
434.609375	1426.733398
433.205078	1406.888428
431.800781	1420.880981
430.396484	1436.648804
428.992188	1390.113770
427.587891	1373.848511
426.183594	1405.629517
424.777344	1439.178101
423.373047	1408.683472
421.966797	1419.101196
420.560547	1369.062866
419.154297	1383.039185
417.748047	1407.674561
416.339844	1407.422485
414.933594	1385.849609
413.525391	1376.719238
412.119141	1413.770630
410.710938	1388.656494
409.302734	1368.877686
407.894531	1432.537476
406.486328	1387.910156
405.076172	1353.945923
403.667969	1410.477173
402.257812	1341.043579
400.849609	1378.047852
399.439453	1388.440186
398.029297	1363.370605
396.619141	1309.948364
395.207031	1362.881836
393.796875	1330.742188
392.386719	1309.243896
390.974609	1328.493774
389.562500	1330.026611
388.150391	1320.934570
386.738281	1361.416382
385.326172	1387.723022
383.914062	1318.454346
382.500000	1346.528564
381.087891	1326.827026
379.673828	1315.976318
378.259766	1335.193359
376.847656	1317.272339
375.431641	1359.463989
374.017578	1369.825195
372.603516	1282.986694
371.189453	1323.394775
369.773438	1367.321411
368.357422	1285.828613
366.941406	1262.640747
365.527344	1357.757324
364.109375	1255.126465
362.693359	1323.735352
361.277344	1298.792480
359.859375	1337.375000
358.443359	1252.461426
357.025391	1291.038330
355.607422	1306.677124
354.189453	1267.654663
352.771484	1304.445068
351.353516	1309.498169
349.933594	1325.122192
348.515625	1275.553467
347.095703	1264.755371
345.675781	1188.797485
344.255859	1251.975098
342.835938	1271.116211
341.416016	1212.800171
339.996094	1268.899658
338.576172	1214.124023
337.154297	1280.758667
335.732422	1215.446777
334.310547	1201.159180
332.888672	1251.935059
331.466797	1230.613770
330.044922	1179.419312
328.623047	1235.443726
327.199219	1212.379761
325.777344	1236.756348
324.353516	1208.431030
322.929688	1229.287231
321.505859	1172.880371
320.082031	1255.177734
318.658203	1168.948364
317.232422	1242.442383
315.808594	1208.882568
314.382812	1217.436279
312.957031	1147.060791
311.531250	1157.376099
310.105469	1186.973755
308.679688	1200.783936
307.253906	1177.783447
305.826172	1184.580933
304.400391	1200.136108
302.972656	1182.403076
301.544922	1187.444580
300.117188	1222.252441
298.689453	1174.761963
297.261719	1146.543335
295.832031	1135.836182
294.404297	1147.880493
292.974609	1095.188843
291.546875	1128.226318
290.117188	1110.534546
288.687500	1117.328857
287.255859	1192.302124
285.826172	1155.380981
284.396484	1149.930176
282.964844	1118.271729
281.533203	1163.491943
280.103516	1116.122437
278.671875	1129.892212
277.240234	1131.434814
275.806641	1125.993896
274.375000	1082.155762
272.943359	1074.980469
271.509766	1104.448120
270.076172	1092.037842
268.642578	1032.539917
267.208984	1084.669067
265.775391	1077.499512
264.341797	1089.507935
262.906250	1098.026123
261.472656	1071.689453
260.037109	1083.692261
258.601562	1104.400391
257.167969	1105.942993
255.730469	1117.932983
254.294922	1072.465088
252.859375	1075.753174
251.421875	1075.559204
249.986328	1047.524170
248.548828	1057.773804
247.111328	1055.843750
245.673828	1076.522949
244.236328	1038.074829
242.798828	1074.396240
241.359375	1075.940674
239.921875	1084.435913
238.482422	1044.276367
237.042969	1080.570312
235.605469	1087.323120
234.164062	1073.234009
232.724609	1046.995728
231.285156	1025.974854
229.843750	1077.860352
228.404297	1048.164551
226.962891	1047.975342
225.521484	1082.481201
224.080078	1075.348145
222.638672	1047.408081
221.197266	1043.751465
219.755859	986.357788
218.312500	1048.574219
216.869141	1024.124878
215.427734	1051.660767
213.984375	1049.738770
212.541016	1049.549194
211.095703	1007.800903
209.652344	1037.051147
208.208984	1038.594849
206.763672	1008.985718
205.318359	1027.837524
203.873047	1015.541565
202.427734	1053.412476
200.982422	999.609863
199.537109	989.054565
198.091797	1025.180786
196.644531	983.511780
195.197266	981.605957
193.751953	974.517090
192.304688	969.158386
190.857422	979.346680
189.408203	972.262024
187.960938	956.546753
186.513672	970.184326
185.064453	944.119080
183.615234	928.417236
182.166016	912.721130
180.716797	895.305542
179.267578	945.161316
177.818359	953.612610
176.369141	956.888489
174.917969	913.620178
173.466797	891.049500
172.017578	939.137634
170.566406	911.401733
169.115234	925.017456
167.662109	930.016907
166.210938	969.453369
164.757812	898.691162
163.306641	950.168152
161.853516	912.134094
160.400391	891.320740
158.947266	865.353699
157.494141	935.720154
156.041016	923.512512
154.585938	923.345398
153.132812	895.672058
151.677734	849.101562
150.222656	902.221985
148.767578	828.175781
147.312500	901.895386
145.857422	862.227661
144.402344	844.898865
142.945312	841.311951
141.488281	842.876343
140.033203	863.319824
138.576172	799.670349
137.119141	869.870056
135.662109	845.696838
134.203125	833.537964
132.746094	826.527832
131.287109	848.666382
129.830078	814.229309
128.371094	790.087830
126.912109	788.231140
125.453125	794.941284
123.992188	815.352417
122.533203	791.228088
121.072266	828.755371
119.613281	816.621277
118.152344	807.914856
116.691406	754.715881
115.230469	793.933533
113.769531	829.715454
112.306641	788.514465
110.845703	745.618164
109.382812	748.902649
107.919922	714.576660
106.458984	661.461792
104.996094	664.759644
103.531250	618.507324
102.068359	577.396606
100.605469	601.203430
