#Wave		#Intensity
1998.943359	13458.833008
1997.975586	13425.250000
1997.007812	13448.738281
1996.039062	13500.624023
1995.071289	13467.288086
1994.102539	13364.263672
1993.133789	13372.257812
1992.165039	13576.372070
1991.196289	13834.597656
1990.227539	13597.435547
1989.257812	13326.826172
1988.288086	13574.643555
1987.318359	13536.179688
1986.348633	13435.860352
1985.378906	13505.685547
1984.409180	13377.058594
1983.438477	13464.904297
1982.467773	13632.576172
1981.497070	13498.841797
1980.526367	13519.664062
1979.555664	13321.625977
1978.584961	13491.779297
1977.613281	13499.720703
1976.641602	13268.334961
1975.669922	13461.562500
1974.698242	13567.257812
1973.726562	13505.734375
1972.753906	13382.512695
1971.782227	13398.175781
1970.809570	13562.931641
1969.836914	13439.763672
1968.863281	13511.942383
1967.890625	13609.788086
1966.917969	13561.172852
1965.944336	13648.701172
1964.970703	13309.911133
1963.997070	13358.938477
1963.023438	13418.216797
1962.048828	13675.105469
1961.075195	13393.001953
1960.100586	13352.176758
1959.125977	13396.020508
1958.151367	13534.749023
1957.176758	13450.324219
1956.201172	13281.317383
1955.226562	13304.632812
1954.250977	13466.345703
1953.275391	13479.369141
1952.299805	13436.019531
1951.323242	13387.561523
1950.347656	13300.701172
1949.371094	13508.365234
1948.394531	13449.676758
1947.417969	13495.965820
1946.441406	13386.109375
1945.464844	13373.534180
1944.487305	13481.216797
1943.509766	13657.930664
1942.532227	13294.908203
1941.554688	13509.951172
1940.577148	13453.897461
1939.599609	13218.916992
1938.621094	13375.072266
1937.642578	13510.729492
1936.664062	13521.142578
1935.685547	13449.805664
1934.707031	13314.639648
1933.727539	13447.656250
1932.749023	13424.879883
1931.769531	13169.806641
1930.790039	13343.615234
1929.810547	13228.998047
1928.830078	13433.351562
1927.850586	13351.920898
1926.870117	13482.214844
1925.889648	13431.404297
1924.909180	13319.419922
1923.928711	13421.607422
1922.948242	13363.186523
1921.966797	13513.748047
1920.985352	13264.240234
1920.003906	13463.166016
1919.022461	13397.135742
1918.041016	13315.848633
1917.059570	13496.836914
1916.077148	13469.018555
1915.094727	13395.396484
1914.112305	13347.246094
1913.129883	13533.189453
1912.147461	13266.257812
1911.164062	13444.518555
1910.180664	13365.875977
1909.197266	13208.442383
1908.213867	13384.075195
1907.230469	13287.691406
1906.247070	13292.988281
1905.262695	13239.845703
1904.278320	13285.793945
1903.294922	13192.032227
1902.309570	13375.099609
1901.325195	13321.977539
1900.340820	13256.180664
1899.355469	13190.407227
1898.370117	13269.300781
1897.384766	13338.018555
1896.399414	13241.822266
1895.414062	13229.357422
1894.427734	13315.794922
1893.442383	13156.265625
1892.456055	13235.080078
1891.469727	13313.865234
1890.482422	13314.066406
1889.496094	13255.993164
1888.508789	13324.599609
1887.522461	13519.819336
1886.535156	13190.782227
1885.547852	13173.279297
1884.559570	13272.226562
1883.572266	13330.643555
1882.583984	13419.406250
1881.595703	13083.082031
1880.607422	13280.629883
1879.619141	13258.068359
1878.630859	13235.513672
1877.641602	13212.965820
1876.653320	13321.875977
1875.664062	13296.792969
1874.674805	13511.781250
1873.684570	13347.712891
1872.695312	13239.275391
1871.705078	13353.133789
1870.715820	13290.186523
1869.725586	13520.133789
1868.735352	13260.281250
1867.744141	13295.812500
1866.753906	13343.949219
1865.762695	13144.814453
1864.771484	13276.203125
1863.780273	13329.360352
1862.789062	13410.236328
1861.797852	13465.871094
1860.805664	13171.096680
1859.813477	13156.183594
1858.821289	13184.113281
1857.829102	13297.694336
1856.836914	13262.613281
1855.844727	13320.730469
1854.851562	13184.931641
1853.858398	13210.311523
1852.865234	13019.198242
1851.872070	13037.046875
1850.878906	13130.379883
1849.884766	13022.405273
1848.890625	13276.697266
1847.897461	13344.787109
1846.903320	13216.713867
1845.908203	13367.755859
1844.914062	13186.934570
1843.918945	13252.476562
1842.923828	13287.840820
1841.929688	13112.152344
1840.933594	13147.527344
1839.938477	13285.862305
1838.943359	13024.888672
1837.947266	13200.854492
1836.951172	13183.473633
1835.955078	13176.137695
1834.958984	13128.654297
1833.961914	13194.086914
1832.965820	13287.087891
1831.968750	13279.736328
1830.971680	13222.236328
1829.974609	13202.363281
1828.977539	13310.334961
1827.979492	13157.622070
1826.982422	13273.081055
1825.984375	13235.672852
1824.986328	13280.938477
1823.988281	13331.196289
1822.989258	13331.356445
1821.991211	13499.254883
1820.992188	13236.555664
1819.993164	13254.249023
1818.994141	13276.940430
1817.995117	13019.420898
1816.995117	13164.711914
1815.996094	13284.941406
1814.996094	13217.591797
1813.996094	13322.769531
1812.996094	13322.924805
1811.996094	13263.099609
1810.995117	13150.822266
1809.994141	13071.061523
1808.993164	13228.624023
1807.992188	13066.461914
1806.991211	13084.137695
1805.990234	13094.318359
1804.988281	13084.525391
1803.986328	13159.587891
1802.984375	13069.938477
1801.982422	13065.143555
1800.980469	13264.884766
1799.977539	13000.690430
1798.975586	12993.414062
1797.972656	13203.033203
1796.969727	13120.946289
1795.966797	13233.274414
1794.962891	13250.877930
1793.959961	13256.018555
1792.956055	12962.256836
1791.952148	13228.935547
1790.948242	13189.256836
1789.943359	13032.583984
1788.939453	13117.406250
1787.934570	13169.845703
1786.929688	13050.580078
1785.924805	13170.180664
1784.919922	13120.601562
1783.915039	12814.890625
1782.909180	13115.978516
1781.903320	13034.115234
1780.897461	13056.673828
1779.891602	12803.375000
1778.885742	13089.342773
1777.879883	13024.929688
1776.873047	13082.245117
1775.866211	12995.504883
1774.859375	13040.389648
1773.852539	13152.286133
1772.844727	12934.028320
1771.837891	13075.682617
1770.830078	13075.858398
1769.822266	12996.649414
1768.814453	12974.515625
1767.806641	12808.555664
1766.797852	12875.720703
1765.789062	12801.559570
1764.781250	13062.029297
1763.772461	13015.119141
1762.762695	13064.855469
1761.753906	13077.414062
1760.744141	12968.604492
1759.735352	13010.891602
1758.725586	12944.221680
1757.714844	12887.476562
1756.705078	12999.055664
1755.695312	13038.831055
1754.684570	12885.604492
1753.673828	13066.388672
1752.663086	12888.476562
1751.652344	12836.745117
1750.640625	12950.684570
1749.629883	12740.749023
1748.618164	12832.420898
1747.606445	12926.529297
1746.594727	12778.476562
1745.583008	12887.382812
1744.570312	12687.520508
1743.557617	12835.914062
1742.545898	12720.075195
1741.533203	12656.116211
1740.519531	12851.328125
1739.506836	12950.232422
1738.493164	12839.387695
1737.479492	12763.117188
1736.465820	12701.670898
1735.452148	12978.075195
1734.438477	13002.902344
1733.423828	12867.493164
1732.410156	12985.986328
1731.395508	12830.913086
1730.380859	12983.861328
1729.366211	12897.815430
1728.350586	12826.576172
1727.334961	12905.570312
1726.320312	12686.633789
1725.304688	12834.546875
1724.288086	13073.468750
1723.272461	12709.437500
1722.256836	13014.721680
1721.240234	12820.555664
1720.223633	12766.642578
1719.207031	12990.609375
1718.190430	12803.923828
1717.172852	12833.615234
1716.155273	12919.821289
1715.138672	12836.449219
1714.121094	12637.637695
1713.102539	12581.363281
1712.084961	13085.054688
1711.066406	12940.323242
1710.048828	12908.574219
1709.030273	12759.014648
1708.011719	12773.937500
1706.992188	12963.069336
1705.973633	12877.363281
1704.954102	13147.353516
1703.934570	12845.831055
1702.915039	12826.394531
1701.895508	12721.159180
1700.875977	12789.991211
1699.855469	12893.107422
1698.834961	12707.056641
1697.814453	12824.848633
1696.793945	13116.506836
1695.773438	12869.289062
1694.751953	12896.393555
1693.730469	12722.744141
1692.709961	12698.462891
1691.687500	12578.748047
1690.666016	12791.838867
1689.644531	12911.892578
1688.622070	12924.281250
1687.599609	12635.870117
1686.577148	12861.023438
1685.554688	12743.848633
1684.532227	12902.908203
1683.508789	12717.340820
1682.485352	12910.554688
1681.461914	12764.137695
1680.438477	12669.062500
1679.415039	12798.688477
1678.391602	12706.082031
1677.367188	12672.095703
1676.342773	12782.124023
1675.318359	12713.971680
1674.293945	12633.642578
1673.268555	12677.753906
1672.244141	12755.994141
1671.218750	12692.769531
1670.193359	12675.890625
1669.167969	12958.856445
1668.141602	12910.250977
1667.116211	12966.446289
1666.089844	12783.853516
1665.063477	12727.996094
1664.037109	12669.721680
1663.010742	12567.635742
1661.983398	12726.096680
1660.957031	12789.565430
1659.929688	12509.841797
1658.902344	12758.262695
1657.875000	12454.313477
1656.846680	12758.602539
1655.819336	12644.463867
1654.791016	12763.803711
1653.762695	12610.803711
1652.734375	12657.182617
1651.705078	12523.697266
1650.676758	12618.672852
1649.647461	12577.562500
1648.618164	12623.912109
1647.588867	12616.814453
1646.559570	12641.286133
1645.529297	12410.831055
1644.500000	12367.364258
1643.469727	12692.803711
1642.439453	12634.741211
1641.409180	12627.647461
1640.377930	12603.575195
1639.347656	12601.337891
1638.316406	12470.587891
1637.285156	12221.091797
1636.253906	12708.550781
1635.222656	12430.018555
1634.190430	12466.580078
1633.158203	12590.342773
1632.125977	12416.131836
1631.093750	12353.382812
1630.061523	12404.458008
1629.029297	12375.625000
1627.996094	12446.041016
1626.962891	12402.689453
1625.929688	12371.451172
1624.896484	12436.990234
1623.863281	12444.456055
1622.829102	12328.583984
1621.794922	12374.750977
1620.760742	12440.241211
1619.726562	12305.094727
1618.692383	12418.904297
1617.657227	12233.068359
1616.622070	12344.434570
1615.587891	12308.425781
1614.551758	12390.758789
1613.516602	12236.446289
1612.481445	12362.214844
1611.445312	12212.787109
1610.409180	12181.658203
1609.373047	12514.863281
1608.336914	12370.311523
1607.300781	12259.578125
1606.263672	12409.319336
1605.226562	12329.959961
1604.189453	12267.501953
1603.152344	12279.781250
1602.115234	12200.486328
1601.077148	12275.414062
1600.039062	12234.688477
1599.000977	12035.019531
1597.962891	12420.569336
1596.924805	12122.226562
1595.885742	12112.847656
1594.847656	12048.118164
1593.808594	12161.476562
1592.769531	12294.041992
1591.730469	12092.202148
1590.690430	12243.971680
1589.651367	12169.654297
1588.611328	12285.292969
1587.571289	12112.440430
1586.531250	12127.107422
1585.490234	12209.049805
1584.450195	12062.729492
1583.409180	12223.919922
1582.368164	12017.607422
1581.327148	12262.788086
1580.285156	12097.354492
1579.244141	12217.616211
1578.202148	12361.833984
1577.160156	12114.887695
1576.118164	12038.359375
1575.076172	12268.880859
1574.033203	12293.075195
1572.991211	12043.916992
1571.948242	12197.597656
1570.905273	12209.806641
1569.862305	12238.785156
1568.818359	12020.960938
1567.775391	12212.864258
1566.731445	12414.279297
1565.687500	12165.406250
1564.643555	12031.549805
1563.598633	12247.251953
1562.554688	12036.835938
1561.509766	12159.129883
1560.464844	12262.238281
1559.419922	12073.459961
1558.374023	12300.918945
1557.329102	12014.155273
1556.283203	12236.760742
1555.237305	12067.243164
1554.191406	11976.659180
1553.145508	12187.202148
1552.098633	12285.376953
1551.052734	12099.249023
1550.005859	12080.372070
1548.958984	12157.019531
1547.912109	12164.401367
1546.864258	12212.361328
1545.816406	12062.208984
1544.769531	12153.121094
1543.721680	12317.959961
1542.672852	12117.775391
1541.625000	12125.153320
1540.576172	12149.219727
1539.528320	12187.581055
1538.479492	12256.916992
1537.430664	12209.448242
1536.380859	12154.846680
1535.332031	12355.182617
1534.282227	12293.427734
1533.232422	11995.919922
1532.182617	12098.548828
1531.132812	12089.246094
1530.082031	12137.074219
1529.031250	11994.496094
1527.981445	12037.563477
1526.929688	12144.848633
1525.878906	12111.758789
1524.828125	12019.225586
1523.776367	11938.614258
1522.724609	12119.535156
1521.672852	12065.079102
1520.621094	12053.417969
1519.569336	12034.632812
1518.516602	11932.707031
1517.463867	11847.444336
1516.411133	11987.813477
1515.358398	12083.019531
1514.305664	12102.225586
1513.251953	11941.040039
1512.198242	11777.537109
1511.144531	12098.112305
1510.090820	12228.794922
1509.037109	12001.288086
1507.982422	11842.632812
1506.927734	11918.757812
1505.873047	12001.965820
1504.818359	11845.763672
1503.763672	11959.760742
1502.708984	12016.853516
1501.653320	11917.583008
1500.597656	11842.032227
1499.541992	11811.499023
1498.486328	11676.802734
1497.429688	11712.588867
1496.373047	11852.497070
1495.317383	11921.366211
1494.260742	11798.575195
1493.203125	12002.257812
1492.146484	11948.081055
1491.088867	11827.713867
1490.031250	11962.719727
1488.973633	11795.117188
1487.916016	11660.660156
1486.858398	11871.235352
1485.799805	11746.262695
1484.741211	11678.022461
1483.682617	11930.989258
1482.624023	11798.987305
1481.565430	11825.205078
1480.505859	11889.179688
1479.446289	11820.972656
1478.386719	11769.306641
1477.327148	11835.613281
1476.267578	11569.323242
1475.207031	11746.479492
1474.147461	11749.091797
1473.086914	11589.041016
1472.026367	11546.897461
1470.964844	11740.424805
1469.904297	11637.007812
1468.842773	11580.742188
1467.781250	11576.312500
1466.719727	11574.239258
1465.658203	11769.940430
1464.595703	11805.497070
1463.533203	11572.727539
1462.471680	11485.939453
1461.409180	11735.627930
1460.345703	11394.787109
1459.283203	11665.569336
1458.219727	11468.303711
1457.156250	11555.589844
1456.092773	11527.661133
1455.029297	11546.748047
1453.965820	11441.286133
1452.901367	11700.018555
1451.836914	11646.244141
1450.772461	11658.248047
1449.708008	11508.224609
1448.642578	11419.295898
1447.578125	11532.266602
1446.512695	11563.054688
1445.447266	11403.768555
1444.381836	11324.304688
1443.315430	11406.715820
1442.250000	11566.488281
1441.183594	11456.554688
1440.117188	11492.009766
1439.050781	11729.029297
1437.983398	11459.764648
1436.916992	11352.270508
1435.849609	11357.261719
1434.782227	11294.325195
1433.714844	11479.645508
1432.647461	11510.365234
1431.579102	11496.594727
1430.510742	11326.010742
1429.442383	11298.236328
1428.374023	11333.644531
1427.305664	11471.968750
1426.236328	11275.782227
1425.167969	11290.126953
1424.098633	11269.396484
1423.028320	11374.904297
1421.958984	11314.431641
1420.889648	11501.680664
1419.819336	11413.169922
1418.749023	11478.862305
1417.678711	11264.267578
1416.608398	11528.448242
1415.537109	11493.691406
1414.465820	11437.939453
1413.395508	11554.911133
1412.323242	11508.500977
1411.251953	11434.110352
1410.180664	11502.034180
1409.108398	11443.995117
1408.036133	11318.355469
1406.963867	11206.749023
1405.891602	11405.194336
1404.818359	11309.925781
1403.746094	11130.806641
1402.672852	11289.552734
1401.599609	11122.147461
1400.525391	11176.040039
1399.452148	11404.543945
1398.377930	11260.486328
1397.303711	11174.669922
1396.229492	11309.962891
1395.155273	11273.028320
1394.081055	11229.127930
1393.005859	11201.524414
1391.930664	11159.976562
1390.855469	11083.568359
1389.780273	11079.250000
1388.704102	11128.390625
1387.628906	11089.208008
1386.552734	11224.293945
1385.476562	11224.597656
1384.400391	11085.547852
1383.323242	11009.245117
1382.247070	11093.167969
1381.169922	11033.139648
1380.092773	11040.438477
1379.014648	10869.057617
1377.937500	10969.184570
1376.859375	11113.346680
1375.782227	10988.428711
1374.704102	11141.810547
1373.625000	11288.180664
1372.546875	11200.384766
1371.467773	11036.140625
1370.388672	10976.225586
1369.309570	10925.598633
1368.230469	10828.664062
1367.151367	10984.193359
1366.071289	10998.423828
1364.991211	11116.825195
1363.911133	11251.386719
1362.831055	11066.538086
1361.750977	10867.873047
1360.669922	11152.773438
1359.588867	11014.300781
1358.507812	10993.816406
1357.426758	11051.951172
1356.345703	11063.830078
1355.263672	11188.958008
1354.181641	10877.285156
1353.099609	10967.743164
1352.017578	11009.658203
1350.935547	10977.648438
1349.852539	11091.130859
1348.769531	11052.191406
1347.686523	10911.697266
1346.603516	10886.650391
1345.520508	10974.682617
1344.436523	10961.167969
1343.352539	10929.205078
1342.268555	10977.973633
1341.184570	11035.947266
1340.100586	10904.851562
1339.015625	10759.971680
1337.930664	10857.130859
1336.845703	10903.561523
1335.760742	10841.696289
1334.675781	11000.977539
1333.589844	10713.424805
1332.503906	10819.712891
1331.417969	10907.544922
1330.332031	10845.732422
1329.246094	10882.897461
1328.159180	11094.917969
1327.072266	10655.825195
1325.985352	10780.405273
1324.898438	10842.850586
1323.811523	10942.060547
1322.723633	10832.041016
1321.635742	10643.915039
1320.547852	10800.555664
1319.459961	10929.567383
1318.371094	10789.765625
1317.283203	10879.687500
1316.194336	10847.871094
1315.105469	10944.636719
1314.016602	10866.909180
1312.926758	10885.602539
1311.837891	10936.415039
1310.748047	10698.130859
1309.658203	10737.488281
1308.568359	10909.849609
1307.477539	10827.624023
1306.387695	10752.304688
1305.296875	10649.506836
1304.206055	10789.672852
1303.114258	10673.155273
1302.023438	10898.031250
1300.931641	10671.589844
1299.840820	10594.087891
1298.748047	10637.967773
1297.656250	10571.945312
1296.564453	10769.166992
1295.471680	10632.201172
1294.378906	10717.225586
1293.286133	10628.358398
1292.193359	10729.362305
1291.099609	10731.996094
1290.006836	10656.891602
1288.913086	10673.252930
1287.819336	10486.192383
1286.725586	10687.674805
1285.630859	10452.698242
1284.536133	10631.270508
1283.442383	10579.101562
1282.346680	10586.322266
1281.251953	10666.599609
1280.157227	10607.603516
1279.061523	10573.732422
1277.965820	10482.828125
1276.870117	10731.889648
1275.774414	10615.896484
1274.677734	10693.797852
1273.581055	10555.050781
1272.485352	10550.861328
1271.387695	10327.852539
1270.291016	10562.996094
1269.194336	10613.490234
1268.096680	10750.536133
1266.999023	10441.097656
1265.901367	10537.131836
1264.803711	10409.995117
1263.705078	10273.797852
1262.606445	10353.876953
1261.507812	10336.072266
1260.409180	10454.789062
1259.310547	10487.018555
1258.210938	10294.067383
1257.111328	10396.808594
1256.011719	10408.567383
1254.912109	10679.465820
1253.812500	10438.888672
1252.711914	10346.103516
1251.612305	10507.810547
1250.511719	10471.833984
1249.410156	10513.087891
1248.309570	10184.199219
1247.208008	10289.058594
1246.107422	10291.734375
1245.005859	10260.366211
1243.903320	10326.579102
1242.801758	10295.214844
1241.699219	10318.299805
1240.597656	10391.268555
1239.495117	10364.443359
1238.391602	10328.559570
1237.289062	10192.957031
1236.185547	10308.951172
1235.082031	10347.866211
1233.978516	10314.275391
1232.875000	10391.678711
1231.771484	10346.767578
1230.666992	10349.419922
1229.562500	10435.829102
1228.458008	10551.628906
1227.353516	10253.273438
1226.248047	10382.638672
1225.143555	10376.231445
1224.038086	10259.002930
1222.931641	10089.807617
1221.826172	10503.976562
1220.720703	10321.234375
1219.614258	10391.682617
1218.507812	10227.103516
1217.401367	10288.505859
1216.294922	10288.897461
1215.187500	10284.771484
1214.080078	10253.550781
1212.972656	10220.083984
1211.865234	10134.712891
1210.757812	10180.265625
1209.649414	10063.343750
1208.541016	10158.521484
1207.432617	10253.666016
1206.324219	10362.304688
1205.215820	10112.404297
1204.106445	10121.839844
1202.997070	10266.504883
1201.887695	10041.544922
1200.778320	10069.010742
1199.668945	10148.278320
1198.558594	10096.884766
1197.448242	10185.125000
1196.337891	10358.887695
1195.227539	10318.737305
1194.117188	10316.863281
1193.005859	10233.980469
1191.894531	10110.631836
1190.783203	10315.738281
1189.671875	10196.916992
1188.559570	10433.413086
1187.447266	10280.888672
1186.334961	10249.799805
1185.222656	10063.653320
1184.110352	10138.219727
1182.998047	10140.870117
1181.884766	10217.640625
1180.771484	10103.497070
1179.658203	10330.681641
1178.543945	10344.517578
1177.430664	10181.033203
1176.316406	10087.173828
1175.202148	10101.044922
1174.087891	10076.775391
1172.972656	10083.913086
1171.858398	10115.715820
1170.743164	10192.347656
1169.627930	10129.968750
1168.512695	10083.301758
1167.396484	10130.764648
1166.281250	10057.228516
1165.165039	10086.758789
1164.048828	10049.088867
1162.931641	10074.130859
1161.815430	10063.341797
1160.698242	10092.847656
1159.581055	10003.729492
1158.463867	10176.438477
1157.346680	10011.273438
1156.228516	10040.765625
1155.111328	10005.392578
1153.993164	9898.482422
1152.875000	9916.799805
1151.755859	9997.693359
1150.637695	9933.300781
1149.518555	10092.361328
1148.399414	9967.659180
1147.280273	10021.680664
1146.160156	9879.170898
1145.041016	9908.628906
1143.920898	9991.650391
1142.800781	9958.583984
1141.680664	9907.676758
1140.559570	9883.561523
1139.439453	10060.211914
1138.318359	9924.564453
1137.197266	9918.296875
1136.075195	9793.870117
1134.954102	9834.436523
1133.832031	9774.700195
1132.709961	9937.805664
1131.587891	9855.793945
1130.465820	9851.769531
1129.342773	9905.648438
1128.220703	9850.404297
1127.097656	9812.989258
1125.974609	9893.553711
1124.850586	9914.002930
1123.727539	9869.920898
1122.603516	9727.973633
1121.479492	9824.062500
1120.355469	9817.823242
1119.230469	9842.711914
1118.106445	9760.890625
1116.981445	9632.426758
1115.856445	9808.438477
1114.730469	9822.201172
1113.605469	9729.334961
1112.479492	9947.429688
1111.353516	9676.933594
1110.227539	9748.430664
1109.101562	9964.181641
1107.974609	9709.364258
1106.848633	9638.806641
1105.721680	9734.660156
1104.594727	9686.303711
1103.466797	9724.453125
1102.339844	9620.684570
1101.211914	9769.673828
1100.083984	9595.006836
1098.956055	9763.890625
1097.827148	9575.993164
1096.699219	9574.245117
1095.570312	9769.616211
1094.441406	9499.885742
1093.311523	9504.792969
1092.182617	9638.087891
1091.052734	9488.041992
1089.922852	9641.205078
1088.792969	9579.708008
1087.663086	9657.589844
1086.532227	9611.593750
1085.402344	9499.277344
1084.271484	9572.708008
1083.139648	9575.379883
1082.008789	9692.968750
1080.876953	9722.130859
1079.746094	9581.175781
1078.614258	9676.610352
1077.481445	9661.591797
1076.349609	9741.519531
1075.216797	9666.888672
1074.083984	9651.878906
1072.951172	9528.742188
1071.818359	9436.540039
1070.685547	9622.319336
1069.551758	9430.883789
1068.417969	9464.440430
1067.284180	9656.725586
1066.149414	9718.884766
1065.015625	9620.134766
1063.880859	9629.392578
1062.746094	9563.740234
1061.611328	9643.491211
1060.476562	9683.570312
1059.340820	9529.866211
1058.205078	9691.034180
1057.069336	9625.428711
1055.933594	9608.261719
1054.796875	9571.298828
1053.661133	9512.349609
1052.524414	9376.439453
1051.387695	9519.862305
1050.250000	9447.761719
1049.113281	9632.886719
1047.975586	9747.610352
1046.837891	9561.237305
1045.700195	9616.610352
1044.561523	9656.585938
1043.423828	9747.061523
1042.285156	9578.389648
1041.146484	9776.422852
1040.007812	9548.541016
1038.868164	9533.624023
1037.728516	9481.409180
1036.589844	9501.610352
1035.449219	9692.894531
1034.309570	9535.411133
1033.169922	9487.618164
1032.029297	9523.148438
1030.888672	9457.838867
1029.748047	9545.955078
1028.606445	9311.954102
1027.465820	9459.211914
1026.324219	9531.946289
1025.182617	9468.882812
1024.041016	9370.811523
1022.898438	9482.923828
1021.756836	9424.280273
1020.614258	9372.223633
1019.471680	9433.952148
1018.328125	9475.970703
1017.185547	9421.744141
1016.041992	9459.375000
1014.898438	9416.102539
1013.754883	9281.039062
1012.610352	9458.541992
1011.466797	9371.590820
1010.322266	9518.425781
1009.177734	9490.468750
1008.033203	9477.808594
1006.887695	9419.300781
1005.742188	9417.572266
1004.597656	9413.661133
1003.451172	9346.466797
1002.305664	9408.024414
1001.160156	9399.752930
1000.013672	9371.855469
998.867188	9446.457031
997.720703	9488.327148
996.573242	9384.133789
995.426758	9356.257812
994.279297	9358.897461
993.131836	9278.749023
991.983398	9375.065430
990.835938	9414.721680
989.687500	9347.669922
988.539062	9332.891602
987.390625	9300.704102
986.242188	9203.242188
985.092773	9503.991211
983.944336	9156.352539
982.794922	9178.595703
981.644531	9194.306641
980.495117	9210.010742
979.344727	9275.707031
978.194336	9387.020508
977.043945	9178.857422
975.893555	9318.391602
974.742188	9255.856445
973.591797	9256.327148
972.440430	9374.053711
971.289062	9205.161133
970.136719	9340.218750
968.985352	9362.374023
967.833008	9187.066406
966.680664	9319.881836
965.528320	9240.082031
964.375000	9359.827148
963.221680	9223.674805
962.069336	9287.013672
960.915039	9179.100586
959.761719	9183.913086
958.608398	9411.887695
957.454102	9306.176758
956.299805	9142.026367
955.145508	9285.428711
953.990234	9290.215820
952.834961	9318.811523
951.680664	9327.917969
950.525391	9196.370117
949.369141	9173.042969
948.213867	9298.974609
947.057617	9184.804688
945.901367	9172.302734
944.745117	9112.244141
943.588867	9227.285156
942.431641	9260.163086
941.274414	9150.424805
940.117188	9228.669922
938.959961	9198.892578
937.801758	9033.078125
936.644531	9264.594727
935.486328	9301.745117
934.328125	9289.240234
933.168945	9209.844727
932.010742	9134.793945
930.851562	9046.827148
929.692383	9112.018555
928.533203	9254.810547
927.373047	9078.478516
926.213867	9072.494141
925.053711	8939.361328
923.893555	9058.376953
922.732422	9222.588867
921.572266	9085.193359
920.411133	9195.500977
919.250000	9135.671875
918.088867	9222.249023
916.926758	9181.806641
915.765625	9281.254883
914.603516	8993.389648
913.441406	9021.847656
912.279297	8994.375000
911.116211	9160.442383
909.953125	9038.356445
908.790039	8991.548828
907.626953	8882.432617
906.463867	9076.331055
905.299805	8988.722656
904.135742	9057.946289
902.971680	8925.274414
901.807617	9161.962891
900.643555	8960.623047
899.478516	8980.432617
898.313477	8792.075195
897.148438	8953.517578
895.982422	9078.430664
894.817383	8984.529297
893.651367	9068.646484
892.485352	9109.852539
891.319336	8919.533203
890.152344	8789.293945
888.986328	8965.524414
887.819336	9011.001953
886.652344	8833.692383
885.484375	9035.515625
884.317383	9003.870117
883.149414	8811.672852
881.981445	8807.905273
880.813477	8821.257812
879.644531	9057.129883
878.475586	8933.518555
877.307617	8863.424805
876.137695	8904.556641
874.968750	9003.400391
873.798828	8873.476562
872.629883	8741.462891
871.459961	9013.368164
870.289062	8924.106445
869.119141	8832.741211
867.948242	8803.344727
866.777344	8865.776367
865.606445	8620.757812
864.435547	8804.867188
863.263672	8830.982422
862.092773	8840.018555
860.920898	8750.916992
859.748047	8766.362305
858.576172	8813.790039
857.403320	8752.459961
856.230469	8814.792969
855.057617	8919.730469
853.884766	8856.283203
852.710938	8782.205078
851.538086	8791.231445
850.364258	8774.696289
849.189453	8811.401367
848.015625	8852.351562
846.840820	8952.885742
845.666016	8889.510742
844.491211	8987.873047
843.316406	8764.958008
842.140625	8816.511719
840.965820	8744.701172
839.790039	8636.770508
838.613281	8773.351562
837.437500	8775.977539
836.260742	8759.477539
835.083984	8719.611328
833.907227	8832.707031
832.730469	8890.540039
831.552734	8857.041992
830.375977	8817.185547
829.198242	8966.263672
828.019531	8720.538086
826.841797	8916.260742
825.663086	8850.962891
824.484375	8828.112305
823.305664	8815.873047
822.126953	8871.488281
820.947266	8651.490234
819.767578	8969.939453
818.587891	8828.413086
817.408203	8979.327148
816.228516	8791.246094
815.047852	8736.667969
813.867188	8870.573242
812.686523	8763.069336
811.504883	8776.262695
810.324219	8797.916016
809.142578	8878.809570
807.960938	8710.028320
806.779297	8820.520508
805.596680	8679.305664
804.415039	8889.140625
803.232422	8851.552734
802.048828	8575.134766
800.866211	8748.945312
799.682617	8760.000000
798.500000	8779.500000
797.315430	8746.189453
796.131836	8655.875000
794.948242	8578.261719
793.763672	8732.877930
792.579102	8756.583984
791.394531	8877.346680
790.208984	8607.761719
789.024414	8722.177734
787.838867	8838.661133
786.653320	8712.614258
785.466797	8746.835938
784.281250	8766.290039
783.094727	8697.225586
781.908203	8522.835938
780.721680	8624.477539
779.534180	8627.088867
778.347656	8614.957031
777.160156	8596.513672
775.972656	8658.068359
774.784180	8624.890625
773.596680	8682.208008
772.408203	8588.024414
771.219727	8655.843750
770.031250	8635.307617
768.841797	8776.686523
767.653320	8697.270508
766.463867	8563.233398
765.274414	8479.681641
764.083984	8570.555664
762.894531	8577.366211
761.704102	8592.574219
760.513672	8527.978516
759.322266	8419.314453
758.131836	8451.335938
756.940430	8691.126953
755.749023	8462.882812
754.557617	8545.229492
753.365234	8581.397461
752.173828	8502.204102
750.981445	8567.721680
749.789062	8532.584961
748.595703	8566.630859
747.403320	8550.368164
746.209961	8450.298828
745.016602	8635.172852
743.823242	8463.910156
742.628906	8449.771484
741.435547	8414.699219
740.241211	8490.586914
739.046875	8480.634766
737.851562	8261.429688
736.657227	8646.944336
735.461914	8542.836914
734.266602	8532.881836
733.070312	8435.106445
731.875000	8531.794922
730.678711	8567.831055
729.482422	8553.696289
728.286133	8472.705078
727.089844	8475.304688
725.892578	8573.982422
724.695312	8526.444336
723.498047	8435.076172
722.300781	8473.167969
721.102539	8567.596680
719.904297	8449.144531
718.706055	8351.598633
717.507812	8385.503906
716.308594	8509.074219
715.110352	8447.019531
713.911133	8460.039062
712.711914	8514.740234
711.511719	8531.909180
710.311523	8536.570312
709.112305	8541.228516
707.912109	8631.281250
706.710938	8508.890625
705.510742	8467.745117
704.309570	8330.857422
703.108398	8408.392578
701.907227	8502.545898
700.705078	8371.968750
699.502930	8397.449219
698.301758	8491.550781
697.098633	8344.413086
695.896484	8492.541016
694.693359	8455.622070
693.491211	8412.480469
692.287109	8502.333984
691.083984	8592.153320
689.880859	8596.781250
688.676758	8551.568359
687.472656	8527.133789
686.268555	8452.887695
685.063477	8505.271484
683.858398	8381.254883
682.654297	8533.217773
681.448242	8575.185547
680.243164	8490.627930
679.037109	8547.101562
677.832031	8514.408203
676.625977	8575.000977
675.418945	8544.386719
674.212891	8410.184570
673.005859	8400.327148
671.798828	8361.476562
670.591797	8347.490234
669.383789	8410.114258
668.176758	8491.345703
666.968750	8464.922852
665.760742	8335.046875
664.551758	8381.073242
663.343750	8408.466797
662.134766	8340.715820
660.925781	8473.559570
659.715820	8368.608398
658.506836	8488.995117
657.296875	8578.337891
656.086914	8419.704102
654.876953	8387.143555
653.666016	8468.192383
652.456055	8373.682617
651.245117	8500.125000
650.034180	8403.580078
648.822266	8381.369141
647.611328	8433.453125
646.399414	8506.147461
645.187500	8463.301758
643.974609	8302.919922
642.762695	8385.906250
641.549805	8462.676758
640.336914	8380.708008
639.124023	8385.322266
637.910156	8324.001953
636.696289	8423.384766
635.483398	8543.327148
634.268555	8482.009766
633.054688	8284.832031
631.839844	8456.192383
630.625000	8277.614258
629.410156	8274.007812
628.195312	8173.707520
626.979492	8377.870117
625.764648	8273.474609
624.548828	8286.318359
623.332031	8266.264648
622.116211	8235.941406
620.899414	8376.194336
619.682617	8352.025391
618.465820	8473.714844
617.248047	8305.765625
616.031250	8199.483398
614.813477	8351.928711
613.595703	8340.100586
612.376953	8274.916016
611.159180	8318.507812
609.940430	8234.887695
608.721680	8204.628906
607.502930	8297.426758
606.283203	8174.898438
605.063477	8247.166992
603.843750	8298.911133
602.624023	8256.370117
601.403320	8279.409180
600.183594	8243.033203
598.962891	8161.612305
597.742188	8352.565430
596.520508	8181.072266
595.299805	8398.559570
594.078125	8333.541992
592.856445	8188.747559
591.633789	8242.447266
590.412109	8150.904297
589.189453	8106.430176
587.966797	8315.505859
586.743164	8158.583496
585.520508	8341.000000
584.296875	8413.000977
583.073242	8229.586914
581.849609	8219.871094
580.625000	8124.381836
579.401367	8202.493164
578.176758	8137.664551
576.952148	8107.561035
575.726562	8246.853516
574.500977	8275.912109
573.276367	8235.597656
572.049805	8242.209961
570.824219	8146.856445
569.598633	8290.086914
568.372070	8237.567383
567.145508	8144.305664
565.917969	8099.983398
564.691406	8137.171875
563.463867	8351.561523
562.236328	8270.566406
561.008789	8260.868164
559.780273	8137.166504
558.552734	8225.197266
557.324219	8083.232910
556.094727	8110.199219
554.866211	8220.561523
553.636719	8113.252930
552.407227	8207.303711
551.177734	8177.297363
549.948242	8163.563477
548.717773	8155.932129
547.488281	8036.542969
546.256836	8260.541016
545.026367	8238.675781
543.795898	8078.720215
542.564453	8150.297852
541.333008	8264.480469
540.100586	8195.945312
538.869141	7956.973145
537.636719	8095.473633
536.404297	8073.665039
535.171875	8007.244629
533.939453	8019.933105
532.706055	8014.369141
531.472656	8063.537109
530.239258	7938.394043
529.004883	7973.373047
527.771484	7896.914551
526.537109	7984.550781
525.302734	7938.495117
524.067383	8125.302246
522.833008	8032.676270
521.597656	8021.044434
520.362305	7875.858398
519.126953	7995.769043
517.890625	7931.555664
516.654297	7923.994629
515.417969	7857.795898
514.181641	7955.379395
512.944336	7895.262695
511.708008	7802.833496
510.470703	7874.104004
509.233398	7860.499512
507.995117	7875.177246
506.756836	7916.101074
505.518555	7912.590332
504.280273	8121.039551
503.041992	7982.266602
501.802734	7922.243652
500.563477	7979.258301
499.324219	7915.223633
498.084961	7891.547363
496.844727	7960.632812
495.604492	7957.116211
494.364258	7921.350586
493.124023	7905.750488
491.882812	7898.215332
490.642578	7997.449707
489.401367	7786.476074
488.159180	7950.131836
486.917969	7956.686035
485.675781	7838.434082
484.433594	7853.056152
483.191406	7917.977051
481.948242	7805.833984
480.705078	7844.589844
479.462891	7855.176270
478.218750	7863.747559
476.975586	7870.304688
475.731445	7842.690430
474.487305	7831.163086
473.243164	8002.472168
471.999023	8037.120117
470.753906	7816.687500
469.508789	7949.749023
468.263672	7795.667969
467.018555	7922.660645
465.772461	7860.958496
464.526367	7889.571777
463.280273	7769.720703
462.034180	7700.057617
460.787109	7736.705566
459.540039	7887.623535
458.292969	7846.041504
457.045898	7788.440918
455.797852	7857.104492
454.550781	7821.561035
453.302734	7707.910156
452.053711	7714.464355
450.805664	7853.170410
449.556641	7839.674805
448.307617	7694.079590
447.058594	7826.706055
445.808594	7649.153809
444.559570	7657.710449
443.309570	7832.269043
442.059570	7710.806641
440.808594	7673.361328
439.557617	7701.894531
438.307617	7776.383301
437.055664	7818.873047
435.804688	7687.537109
434.552734	7610.181641
433.300781	7730.562012
432.048828	7605.306152
430.796875	7751.593262
429.543945	7682.265625
428.291016	7658.861328
427.038086	7689.334961
425.785156	7787.619141
424.531250	7672.464844
423.278320	7543.395508
422.023438	7625.700684
420.769531	7658.143066
419.515625	7722.459473
418.260742	7471.933105
417.005859	7681.685547
415.750000	7654.338379
414.495117	7658.863281
413.239258	7844.567871
411.983398	7679.851074
410.727539	7650.533203
409.470703	7776.436523
408.214844	7727.215820
406.958008	7745.643555
405.700195	7839.636230
404.443359	7689.023926
403.185547	7683.591309
401.927734	7827.231445
400.669922	7768.118652
399.411133	7744.791504
398.153320	7779.080566
396.894531	7654.467773
395.635742	7647.060059
394.375977	7784.585938
393.116211	7886.329102
391.857422	7861.019043
390.596680	7756.349121
389.336914	7737.024414
388.076172	7836.714844
386.815430	7704.344238
385.554688	7833.743164
384.293945	7810.452148
383.032227	7858.520020
381.770508	7831.269043
380.508789	7702.985840
379.247070	7755.007324
377.984375	7822.853027
376.721680	7892.652344
375.458984	8009.937988
374.196289	7887.678711
372.932617	7993.046387
371.668945	8015.272461
370.405273	8104.749512
369.141602	8152.657715
367.876953	8135.290527
366.613281	8268.188477
365.347656	8466.267578
364.083008	8719.608398
362.818359	9099.313477
361.552734	9303.047852
360.287109	9878.043945
359.020508	10537.739258
357.754883	11459.787109
356.488281	12296.598633
355.221680	13214.013672
353.955078	14200.147461
352.687500	15292.445312
351.419922	15652.497070
350.152344	15864.495117
348.884766	16531.906250
347.616211	17648.558594
346.348633	19279.238281
345.080078	21478.835938
343.810547	22255.009766
342.541992	21835.117188
341.272461	18931.726562
340.002930	16529.621094
338.733398	14303.654297
337.462891	12647.419922
336.193359	11371.658203
334.922852	10576.503906
333.651367	9905.594727
332.380859	9856.503906
331.109375	9317.748047
329.837891	9198.002930
328.566406	9044.882812
327.293945	8850.545898
326.022461	8738.816406
324.750000	8837.355469
323.477539	8501.734375
322.204102	8619.919922
320.930664	8651.661133
319.657227	8577.375000
318.383789	8544.336914
317.110352	8464.211914
315.835938	8597.987305
314.561523	8476.684570
313.287109	8598.636719
312.011719	8685.245117
310.737305	8462.041992
309.461914	8497.675781
308.185547	8515.656250
306.910156	8578.698242
305.633789	8571.187500
304.357422	8593.060547
303.081055	8701.093750
301.804688	8771.882812
300.527344	8936.611328
299.250000	8966.225586
297.972656	9158.250000
296.694336	9406.939453
295.416992	9833.542969
294.138672	10602.244141
292.860352	11116.450195
291.581055	11726.254883
290.301758	12236.139648
289.022461	12224.037109
287.743164	12249.061523
286.463867	12160.771484
285.183594	12345.957031
283.903320	12480.299805
282.623047	12372.489258
281.342773	12299.856445
280.061523	11901.321289
278.780273	11536.109375
277.499023	11114.458984
276.216797	11079.180664
274.935547	11207.729492
273.653320	11513.663086
272.370117	11694.714844
271.087891	12117.381836
269.804688	12785.422852
268.521484	13609.075195
267.238281	14654.479492
265.955078	16071.472656
264.670898	18194.763672
263.386719	20975.275391
262.102539	24944.017578
260.817383	30898.212891
259.533203	39579.988281
258.248047	51104.503906
256.962891	64657.125000
255.676758	77276.992188
254.390625	82498.078125
253.104492	76320.257812
251.818359	63665.164062
250.532227	50371.722656
249.245117	39608.937500
247.958008	32216.421875
246.670898	26545.408203
245.382812	22447.351562
244.095703	19752.458984
242.807617	17431.248047
241.518555	15749.356445
240.230469	14401.816406
238.941406	13403.952148
237.652344	12169.858398
236.363281	11618.782227
235.074219	11044.651367
233.784180	10474.616211
232.494141	10044.330078
231.204102	9842.840820
229.913086	9333.413086
228.622070	8922.958984
227.331055	8702.433594
226.040039	8644.623047
224.749023	8412.619141
223.457031	8298.760742
222.165039	7999.187500
220.873047	7777.112305
219.580078	7661.504883
218.287109	7538.206055
216.994141	7476.825684
215.701172	7318.812012
214.407227	7178.253418
213.114258	7323.741211
211.820312	7187.098633
210.525391	7106.525879
209.231445	7114.822266
207.936523	7007.260742
206.641602	6982.752930
205.346680	6960.184570
204.050781	6860.432617
202.754883	6953.661133
201.458984	6961.975098
200.163086	6775.487793
198.866211	6768.405762
197.569336	6734.334473
196.272461	6661.724121
194.975586	6643.103027
193.677734	6653.392090
192.379883	6721.470703
191.082031	6550.685547
189.784180	6570.613770
188.485352	6555.877441
187.187500	6558.471191
185.887695	6561.063965
184.588867	6477.063477
183.289062	6579.712402
181.989258	6553.445801
180.689453	6709.888184
179.389648	6589.389160
178.088867	6624.652344
176.788086	6613.771973
175.487305	6668.232910
174.186523	6568.967285
172.884766	6706.015625
171.583008	6624.065430
170.281250	6618.955078
168.979492	6809.669434
167.676758	6591.462891
166.374023	6745.645996
165.071289	6753.945801
163.767578	6530.119629
162.463867	6419.541016
161.160156	6506.520508
159.856445	6512.940918
158.552734	6394.760742
157.248047	6414.615234
155.943359	6476.617188
154.638672	6377.668945
153.333008	6464.554199
152.027344	6610.772949
150.721680	6450.584473
149.416016	6502.947266
148.110352	6561.031250
146.803711	6716.685547
145.497070	6648.433105
144.189453	6650.981934
142.882812	6682.216797
141.575195	6614.009766
140.267578	6467.446289
138.959961	6372.546387
137.651367	6422.919434
136.342773	6385.383301
135.034180	6401.349121
133.725586	6558.642090
132.416016	6259.492188
131.106445	6369.021973
129.796875	6207.457520
128.487305	6299.778320
127.176758	6058.149902
125.866211	5971.138184
124.555664	5943.287598
123.244141	5770.517090
121.933594	5807.539551
120.622070	5852.172852
119.309570	5763.377441
117.998047	5615.544434
116.685547	5290.589844
115.373047	4920.044922
114.060547	4555.355957
112.748047	3994.689941
111.434570	3512.290527
110.121094	2936.813721
108.806641	2405.326416
107.493164	2037.665161
106.178711	1647.318848
104.864258	1264.730103
103.549805	964.052246
102.234375	699.611328
100.918945	469.485718
99.603516	311.663300
