#Wave		#Intensity
1998.943359	5566.945312
1997.975586	5636.693359
1997.007812	5700.281738
1996.039062	5528.851562
1995.071289	5695.712891
1994.102539	5617.275879
1993.133789	5621.458984
1992.165039	5610.156738
1991.196289	5598.857910
1990.227539	5626.258301
1989.257812	5751.659180
1988.288086	5678.450684
1987.318359	5700.665527
1986.348633	5529.532227
1985.378906	5616.200195
1984.409180	5496.680176
1983.438477	5588.476074
1982.467773	5778.130859
1981.497070	5671.522461
1980.526367	5755.514160
1979.555664	5556.256348
1978.584961	5514.098633
1977.613281	5613.516113
1976.641602	5640.843750
1975.669922	5750.495605
1974.698242	5595.143555
1973.726562	5589.022949
1972.753906	5747.485840
1971.782227	5736.198242
1970.809570	5367.589355
1969.836914	5585.122559
1968.863281	5617.555176
1967.890625	5601.158691
1966.917969	5741.470215
1965.944336	5509.308105
1964.970703	5580.250000
1963.997070	5604.951660
1963.023438	5732.327637
1962.048828	5479.795410
1961.075195	5560.957031
1960.100586	5572.814941
1959.125977	5643.670410
1958.151367	5586.257812
1957.176758	5616.055176
1956.201172	5745.836426
1955.226562	5655.109863
1954.250977	5592.608887
1953.275391	5589.069336
1952.299805	5639.336426
1951.323242	5599.925293
1950.347656	5504.180176
1949.371094	5518.583496
1948.394531	5730.130859
1947.417969	5626.732422
1946.441406	5569.440430
1945.464844	5576.144531
1944.487305	5567.494141
1943.509766	5638.149414
1942.532227	5573.221680
1941.554688	5564.575684
1940.577148	5578.943848
1939.599609	5593.307129
1938.621094	5533.543457
1937.642578	5632.239258
1936.664062	5483.063477
1935.685547	5579.178711
1934.707031	5649.718750
1933.727539	5487.849121
1932.749023	5703.914062
1931.769531	5452.744141
1930.790039	5643.215820
1929.810547	5476.355957
1928.830078	5676.962402
1927.850586	5484.644531
1926.870117	5442.876465
1925.889648	5554.129395
1924.909180	5627.097656
1923.928711	5404.332031
1922.948242	5538.471191
1921.966797	5374.409668
1920.985352	5539.081543
1920.003906	5538.112305
1919.022461	5539.689941
1918.041016	5543.813965
1917.059570	5489.375977
1916.077148	5600.423828
1915.094727	5370.375488
1914.112305	5481.404785
1913.129883	5429.559082
1912.147461	5471.854492
1911.164062	5577.720215
1910.180664	5594.544922
1909.197266	5547.799805
1908.213867	5518.865723
1907.230469	5416.233887
1906.247070	5407.662109
1905.262695	5518.508301
1904.278320	5487.058105
1903.294922	5597.851074
1902.309570	5513.070312
1901.325195	5534.955566
1900.340820	5257.286621
1899.355469	5487.331055
1898.370117	5570.112305
1897.384766	5551.375977
1896.399414	5418.492676
1895.414062	5463.196777
1894.427734	5525.636230
1893.442383	5547.486816
1892.456055	5407.091797
1891.469727	5601.302734
1890.482422	5395.060547
1889.496094	5409.316895
1888.508789	5598.358398
1887.522461	5491.001953
1886.535156	5416.602539
1885.547852	5382.739258
1884.559570	5429.892578
1883.572266	5388.445312
1882.583984	5471.007812
1881.595703	5409.326660
1880.607422	5405.848633
1879.619141	5503.540039
1878.630859	5373.608398
1877.641602	5491.497070
1876.653320	5518.340332
1875.664062	5484.516113
1874.674805	5347.097168
1873.684570	5583.654297
1872.695312	5395.743652
1871.705078	5425.105469
1870.715820	5487.284180
1869.725586	5486.321289
1868.735352	5505.553711
1867.744141	5338.011719
1866.753906	5458.200195
1865.762695	5454.719238
1864.771484	5408.356445
1863.780273	5341.832520
1862.789062	5408.979980
1861.797852	5561.825684
1860.805664	5485.226074
1859.813477	5534.670410
1858.821289	5475.741211
1857.829102	5323.612793
1856.836914	5476.338379
1855.844727	5281.446777
1854.851562	5434.125488
1853.858398	5249.380371
1852.865234	5389.424316
1851.872070	5375.894043
1850.878906	5422.761230
1849.884766	5507.350586
1848.890625	5448.527344
1847.897461	5339.423828
1846.903320	5328.427734
1845.908203	5503.482910
1844.914062	5417.049805
1843.918945	5343.213379
1842.923828	5578.480957
1841.929688	5441.832031
1840.933594	5355.469727
1839.938477	5357.040527
1838.943359	5484.163574
1837.947266	5282.350098
1836.951172	5349.196777
1835.955078	5355.786133
1834.958984	5492.856445
1833.961914	5449.240723
1832.965820	5350.454590
1831.968750	5422.245605
1830.971680	5413.770020
1829.974609	5350.141113
1828.977539	5421.893555
1827.979492	5448.508789
1826.982422	5352.331543
1825.984375	5356.401367
1824.986328	5367.983887
1823.988281	5412.120117
1822.989258	5290.976074
1821.991211	5440.259766
1820.992188	5461.831543
1819.993164	5378.282227
1818.994141	5357.318359
1817.995117	5376.390625
1816.995117	5262.883301
1815.996094	5394.506836
1814.996094	5343.547852
1813.996094	5342.607910
1812.996094	5396.659668
1811.996094	5340.728027
1810.995117	5429.742676
1809.994141	5388.814941
1808.993164	5422.836426
1807.992188	5302.006348
1806.991211	5336.031250
1805.990234	5320.112793
1804.988281	5623.699707
1803.986328	5532.866699
1802.984375	5212.504883
1801.982422	5406.180176
1800.980469	5380.285156
1799.977539	5379.337891
1798.975586	5455.687988
1797.972656	5407.360352
1796.969727	5453.767090
1795.966797	5303.278320
1794.962891	5287.394043
1793.959961	5356.218750
1792.956055	5472.344238
1791.952148	5421.572754
1790.948242	5428.087402
1789.943359	5312.614258
1788.939453	5334.080078
1787.934570	5238.572266
1786.929688	5314.783203
1785.924805	5259.116699
1784.919922	5305.449219
1783.915039	5334.356934
1782.909180	5398.064453
1781.903320	5322.533203
1780.897461	5309.167480
1779.891602	5310.716797
1778.885742	5374.382812
1777.879883	5259.160156
1776.873047	5238.362793
1775.866211	5249.855957
1774.859375	5407.838867
1773.852539	5275.312988
1772.844727	5440.681152
1771.837891	5241.191895
1770.830078	5324.628418
1769.822266	5184.767578
1768.814453	5392.199707
1767.806641	5354.050781
1766.797852	5281.202637
1765.789062	5250.523438
1764.781250	5346.261230
1763.772461	5206.543457
1762.762695	5277.478027
1761.753906	5313.706055
1760.744141	5401.934082
1759.735352	5341.547852
1758.725586	5177.193359
1757.714844	5305.006348
1756.705078	5326.345703
1755.695312	5426.865723
1754.684570	5245.291992
1753.673828	5343.316895
1752.663086	5226.127930
1751.652344	5091.669922
1750.640625	5342.960938
1749.629883	5124.480957
1748.618164	5187.837402
1747.606445	5226.459473
1746.594727	5420.722656
1745.583008	5308.603516
1744.570312	5181.705078
1743.557617	5225.239258
1742.545898	5192.220215
1741.533203	5164.149414
1740.519531	5165.706055
1739.506836	5231.420410
1738.493164	5294.644043
1737.479492	5264.107422
1736.465820	5176.855469
1735.452148	5262.248047
1734.438477	5283.507812
1733.423828	5262.854004
1732.410156	5202.773926
1731.395508	5305.349609
1730.380859	5168.907227
1729.366211	5286.232422
1728.350586	5157.229492
1727.334961	5210.491699
1726.320312	5209.570801
1725.304688	5277.573730
1724.288086	5279.102051
1723.272461	5258.483398
1722.256836	5336.282227
1721.240234	5330.419434
1720.223633	5231.101562
1719.207031	5230.177246
1718.190430	5300.549316
1717.172852	5139.836914
1716.155273	5168.419922
1715.138672	5177.334961
1714.121094	5014.272461
1713.102539	5177.960449
1712.084961	5142.662109
1711.066406	5330.823730
1710.048828	5207.129395
1709.030273	5223.390625
1708.011719	5232.283203
1706.992188	5270.617676
1705.973633	5205.899414
1704.954102	5192.713867
1703.934570	5145.199219
1702.915039	5156.548828
1701.895508	5082.089355
1700.875977	5078.739258
1699.855469	5313.107422
1698.834961	5192.104004
1697.814453	5127.489746
1696.793945	5170.671387
1695.773438	5260.367676
1694.751953	5095.385254
1693.730469	5224.232422
1692.709961	5181.697266
1691.687500	5136.729980
1690.666016	5187.203125
1689.644531	5271.907715
1688.622070	5241.623047
1687.599609	5248.031250
1686.577148	5256.882324
1685.554688	5092.161133
1684.532227	5098.591797
1683.508789	5166.114258
1682.485352	5341.119141
1681.461914	5235.128418
1680.438477	5217.104004
1679.415039	5289.440918
1678.391602	5232.347168
1677.367188	5143.538086
1676.342773	5098.693359
1675.318359	5222.245605
1674.293945	5226.199707
1673.268555	5122.817383
1672.244141	5173.128906
1671.218750	5160.019043
1670.193359	5090.836914
1669.167969	5216.695312
1668.141602	5120.716797
1667.116211	5036.956543
1666.089844	5111.592285
1665.063477	5069.274414
1664.037109	5117.086914
1663.010742	5069.912598
1661.983398	4993.538086
1660.957031	5068.114746
1659.929688	5093.988281
1658.902344	5117.418457
1657.875000	5240.591797
1656.846680	5074.250977
1655.819336	5141.449219
1654.791016	5116.220703
1653.762695	5083.707520
1652.734375	5053.635742
1651.705078	5013.853516
1650.676758	5049.413086
1649.647461	5016.933594
1648.618164	5171.504395
1647.588867	4925.293457
1646.559570	5082.253418
1645.529297	5003.662598
1644.500000	5102.296387
1643.469727	5115.952148
1642.439453	5100.485352
1641.409180	5092.301758
1640.377930	5113.228516
1639.347656	5063.816895
1638.316406	5036.245605
1637.285156	4916.559082
1636.253906	5034.457520
1635.222656	5181.395996
1634.190430	5095.668945
1633.158203	5031.776367
1632.125977	4902.506836
1631.093750	5034.833008
1630.061523	4980.669434
1629.029297	4824.847656
1627.996094	5044.252930
1626.962891	5021.576660
1625.929688	4906.963379
1624.896484	4935.121582
1623.863281	4985.038574
1622.829102	4974.479492
1621.794922	4997.774902
1620.760742	5023.478516
1619.726562	4950.075195
1618.692383	5077.275391
1617.657227	4994.223145
1616.622070	4891.874512
1615.587891	5057.661621
1614.551758	4878.061523
1613.516602	4966.529297
1612.481445	4951.162109
1611.445312	5095.097656
1610.409180	4869.767578
1609.373047	4958.172852
1608.336914	5015.187012
1607.300781	5057.708984
1606.263672	4897.653809
1605.226562	5022.156250
1604.189453	4893.501465
1603.152344	4933.604004
1602.115234	4959.233887
1601.077148	4876.435059
1600.039062	4947.833984
1599.000977	4766.320312
1597.962891	4967.746094
1596.924805	4962.047363
1595.885742	5009.307617
1594.847656	4813.470703
1593.808594	4908.866699
1592.769531	4920.022461
1591.730469	4923.958008
1590.690430	4942.321777
1589.651367	4907.777832
1588.611328	4882.862793
1587.571289	4920.453613
1586.531250	4931.594238
1585.490234	4942.730957
1584.450195	4963.473145
1583.409180	4830.478027
1582.368164	4863.240234
1581.327148	4977.630859
1580.285156	4868.710938
1579.244141	4872.644531
1578.202148	4977.372070
1577.160156	5000.480469
1576.118164	4975.599609
1575.076172	4802.013672
1574.033203	4791.565430
1572.991211	4807.496094
1571.948242	4926.506348
1570.905273	4834.546387
1569.862305	4886.407715
1568.818359	4897.517090
1567.775391	5016.425293
1566.731445	4823.916504
1565.687500	5017.032715
1564.643555	5018.533203
1563.598633	4950.609375
1562.554688	4992.809570
1561.509766	4941.665527
1560.464844	4909.680664
1559.419922	4930.334961
1558.374023	4950.982422
1557.329102	4873.576660
1556.283203	4903.789551
1555.237305	4879.010254
1554.191406	4866.189941
1553.145508	4726.722656
1552.098633	4852.508789
1551.052734	4947.195312
1550.005859	4996.468750
1548.958984	4890.508301
1547.912109	4906.348633
1546.864258	4955.602051
1545.816406	4890.278320
1544.769531	4913.268555
1543.721680	5007.824707
1542.672852	4832.797852
1541.625000	4874.864746
1540.576172	4935.993164
1539.528320	4899.350586
1538.479492	4836.500488
1537.430664	4818.954590
1536.380859	4913.407715
1535.332031	4831.529297
1534.282227	4933.092285
1533.232422	4913.159180
1532.182617	4907.520020
1531.132812	4982.826660
1530.082031	4796.274902
1529.031250	4864.434570
1527.981445	4799.321289
1526.929688	4850.802246
1525.878906	4959.351074
1524.828125	4758.700195
1523.776367	4883.870117
1522.724609	4859.225098
1521.672852	4772.789062
1520.621094	4840.854004
1519.569336	4778.212402
1518.516602	4793.988281
1517.463867	4797.882324
1516.411133	4920.512695
1515.358398	4836.531738
1514.305664	4726.467773
1513.251953	4761.225586
1512.198242	4848.178223
1511.144531	4837.821289
1510.090820	4839.329102
1509.037109	4817.118164
1507.982422	4768.829590
1506.927734	4756.122559
1505.873047	4698.379883
1504.818359	4901.368652
1503.763672	4796.226562
1502.708984	4911.462402
1501.653320	4775.561035
1500.597656	4957.074707
1499.541992	4664.926270
1498.486328	4810.880859
1497.429688	4857.363281
1496.373047	4645.856934
1495.317383	4716.015137
1494.260742	4779.049805
1493.203125	4764.002441
1492.146484	4782.070312
1491.088867	4620.422363
1490.031250	4740.168457
1488.973633	4590.404297
1487.916016	4617.942871
1486.858398	4848.681152
1485.799805	4758.039551
1484.741211	4754.826172
1483.682617	4638.254883
1482.624023	4580.755859
1481.565430	4598.822266
1480.505859	4694.774414
1479.446289	4632.575195
1478.386719	4676.577148
1477.327148	4699.330566
1476.267578	4740.945801
1475.207031	4737.738770
1474.147461	4732.174805
1473.086914	4806.764648
1472.026367	4685.697266
1470.964844	4727.276367
1469.904297	4693.443848
1468.842773	4737.362305
1467.781250	4684.697266
1466.719727	4681.502930
1465.658203	4673.601074
1464.595703	4646.869629
1463.533203	4709.584961
1462.471680	4631.085449
1461.409180	4571.436523
1460.345703	4622.369141
1459.283203	4630.948730
1458.219727	4639.524902
1457.156250	4615.182617
1456.092773	4743.642090
1455.029297	4648.782227
1453.965820	4553.956055
1452.901367	4583.682129
1451.836914	4716.752441
1450.772461	4687.724121
1449.708008	4564.780273
1448.642578	4566.310059
1447.578125	4544.365234
1446.512695	4639.772461
1445.447266	4512.231934
1444.381836	4546.613281
1443.315430	4590.364746
1442.250000	4652.861816
1441.183594	4649.682617
1440.117188	4604.305664
1439.050781	4554.257324
1437.983398	4626.089355
1436.916992	4501.075684
1435.849609	4490.897461
1434.782227	4611.888672
1433.714844	4657.897949
1432.647461	4547.015625
1431.579102	4618.770508
1430.510742	4624.963379
1429.442383	4516.486328
1428.374023	4604.585449
1427.305664	4594.401855
1426.236328	4528.088379
1425.167969	4620.814453
1424.098633	4510.096680
1423.028320	4607.467285
1421.958984	4548.209961
1420.889648	4524.025391
1419.819336	4555.922363
1418.749023	4555.104004
1417.678711	4540.272949
1416.608398	4593.165527
1415.537109	4473.270996
1414.465820	4540.161621
1413.395508	4471.664551
1412.323242	4557.198242
1411.251953	4607.706055
1410.180664	4520.572266
1409.108398	4638.701172
1408.036133	4537.602051
1406.963867	4574.088379
1405.891602	4531.309570
1404.818359	4490.876953
1403.746094	4452.788574
1402.672852	4496.251953
1401.599609	4406.932617
1400.525391	4480.663086
1399.452148	4419.318848
1398.377930	4565.187988
1397.303711	4550.401855
1396.229492	4493.732422
1395.155273	4402.181641
1394.081055	4480.484863
1393.005859	4491.308594
1391.930664	4569.567383
1390.855469	4512.944336
1389.780273	4472.613770
1388.704102	4374.191895
1387.628906	4510.509766
1386.552734	4453.937500
1385.476562	4483.334961
1384.400391	4412.851562
1383.323242	4456.178223
1382.247070	4494.845703
1381.169922	4352.437988
1380.092773	4537.325195
1379.014648	4462.253906
1377.937500	4468.411133
1376.859375	4456.008789
1375.782227	4506.229980
1374.704102	4470.636719
1373.625000	4421.146484
1372.546875	4608.105469
1371.467773	4350.028320
1370.388672	4411.807617
1369.309570	4443.447266
1368.230469	4528.350098
1367.151367	4444.163574
1366.071289	4434.101562
1364.991211	4530.534668
1363.911133	4478.797363
1362.831055	4466.419434
1361.750977	4410.083984
1360.669922	4478.690918
1359.588867	4494.075195
1358.507812	4484.015625
1357.426758	4473.958984
1356.345703	4510.140625
1355.263672	4472.347168
1354.181641	4501.583008
1353.099609	4565.464844
1352.017578	4451.450195
1350.935547	4476.053711
1349.852539	4551.451172
1348.769531	4532.160156
1347.686523	4441.316895
1346.603516	4551.298340
1345.520508	4435.100586
1344.436523	4524.279297
1343.352539	4534.997559
1342.268555	4589.530762
1341.184570	4600.232910
1340.100586	4486.435547
1339.015625	4607.794434
1337.930664	4590.831055
1336.845703	4543.918457
1335.760742	4501.630859
1334.675781	4779.528809
1333.589844	4652.003418
1332.503906	4623.533691
1331.417969	4585.865234
1330.332031	4670.201660
1329.246094	4621.031738
1328.159180	4666.215820
1327.072266	4607.861816
1325.985352	4634.631348
1324.898438	4585.502441
1323.811523	4653.651855
1322.723633	4627.525391
1321.635742	4571.528320
1320.547852	4736.158691
1319.459961	4657.186035
1318.371094	4582.836426
1317.283203	4602.679688
1316.194336	4656.960938
1315.105469	4614.793457
1314.016602	4607.073730
1312.926758	4631.487793
1311.837891	4671.955566
1310.748047	4535.750488
1309.658203	4557.870117
1308.568359	4605.208984
1307.477539	4553.930664
1306.387695	4532.475098
1305.296875	4538.532715
1304.206055	4549.171875
1303.114258	4431.490723
1302.023438	4522.327637
1300.931641	4567.321289
1299.840820	4566.496094
1298.748047	4487.821289
1297.656250	4505.324219
1296.564453	4511.376953
1295.471680	4480.811523
1294.378906	4475.425781
1293.286133	4449.452637
1292.193359	4471.520508
1291.099609	4415.829102
1290.006836	4367.016113
1288.913086	4395.944824
1287.819336	4486.572754
1286.725586	4453.769043
1285.630859	4446.109863
1284.536133	4285.402344
1283.442383	4481.044434
1282.346680	4347.791016
1281.251953	4410.931152
1280.157227	4277.737793
1279.061523	4329.456055
1277.965820	4255.653809
1276.870117	4437.398926
1275.774414	4349.917480
1274.677734	4248.783203
1273.581055	4352.903809
1272.485352	4270.043945
1271.387695	4244.198242
1270.291016	4377.888672
1269.194336	4352.032227
1268.096680	4225.947266
1266.999023	4270.736816
1265.901367	4265.409180
1264.803711	4307.898438
1263.705078	4186.464355
1262.606445	4185.706543
1261.507812	4214.532227
1260.409180	4200.117676
1259.310547	4083.340332
1258.210938	4178.126953
1257.111328	4286.523438
1256.011719	4217.538574
1254.912109	4241.780273
1253.812500	4222.829590
1252.711914	4176.617188
1251.612305	4200.852051
1250.511719	4213.720703
1249.410156	4113.027344
1248.309570	4241.713379
1247.208008	4118.347656
1246.107422	4194.778320
1245.005859	4203.096191
1243.903320	4270.406738
1242.801758	4197.035645
1241.699219	4141.836914
1240.597656	4063.979248
1239.495117	4203.823730
1238.391602	4096.511719
1237.289062	4143.367676
1236.185547	4072.364258
1235.082031	4094.283936
1233.978516	4154.707031
1232.875000	4133.568848
1231.771484	4180.375000
1230.666992	4150.183105
1229.562500	4086.045654
1228.458008	4139.624512
1227.353516	4093.615479
1226.248047	4172.060547
1225.143555	4166.779785
1224.038086	4118.528320
1222.931641	4106.474609
1221.826172	4214.251465
1220.720703	4215.747070
1219.614258	4187.861816
1218.507812	4101.235840
1217.401367	4116.306152
1216.294922	4158.476562
1215.187500	4015.442383
1214.080078	4156.967285
1212.972656	4187.818848
1211.865234	3927.483643
1210.757812	4116.338867
1209.649414	4138.155273
1208.541016	4092.284912
1207.432617	4089.286377
1206.324219	4144.921875
1205.215820	4135.150391
1204.106445	4120.873535
1202.997070	4018.699951
1201.887695	4078.814209
1200.778320	4177.208984
1199.668945	4140.407715
1198.558594	4132.898438
1197.448242	4114.132812
1196.337891	3998.562012
1195.227539	4033.852051
1194.117188	4098.387207
1193.005859	4196.652344
1191.894531	4121.645996
1190.783203	4017.424561
1189.671875	3980.710693
1188.559570	4128.393555
1187.447266	3986.008301
1186.334961	4039.230225
1185.222656	4004.785645
1184.110352	4055.737305
1182.998047	4037.027832
1181.884766	4155.338867
1180.771484	4080.474365
1179.658203	4117.902832
1178.543945	4121.643555
1177.430664	3992.958008
1176.316406	3940.617920
1175.202148	4079.009277
1174.087891	4069.294189
1172.972656	4016.968262
1171.858398	3975.873291
1170.743164	4026.717285
1169.627930	4070.817383
1168.512695	4036.458252
1167.396484	4042.446289
1166.281250	3954.334473
1165.165039	4083.535645
1164.048828	3964.093506
1162.931641	3905.153076
1161.815430	3964.889648
1160.698242	3879.109619
1159.581055	3891.831299
1158.463867	4027.614258
1157.346680	4022.406738
1156.228516	3921.020752
1155.111328	3913.597900
1153.993164	4029.154053
1152.875000	4023.949219
1151.755859	3918.165771
1150.637695	3955.442383
1149.518555	3918.973145
1148.399414	3924.961182
1147.280273	4009.118896
1146.160156	3981.591797
1145.041016	3871.465088
1143.920898	3977.908936
1142.800781	3966.024902
1141.680664	3887.201172
1140.559570	4011.431885
1139.439453	3879.093018
1138.318359	3992.128174
1137.197266	3913.356689
1136.075195	3883.660889
1134.954102	3945.365723
1133.832031	3842.130371
1132.709961	3943.927490
1131.587891	3834.046387
1130.465820	3922.443115
1129.342773	3926.182129
1128.220703	3883.161133
1127.097656	3951.464600
1125.974609	3892.874023
1124.850586	3861.009033
1123.727539	3931.503662
1122.603516	3950.807617
1121.479492	3914.500732
1120.355469	3907.115479
1119.230469	3875.276123
1118.106445	3867.900391
1116.981445	3840.524414
1115.856445	3806.491943
1114.730469	3856.896973
1113.605469	3938.381592
1112.479492	3866.593994
1111.353516	3825.919434
1110.227539	3918.465332
1109.101562	3868.916992
1107.974609	3954.762939
1106.848633	3898.569092
1105.721680	3895.638916
1104.594727	3841.694092
1103.466797	3829.904541
1102.339844	3815.901855
1101.211914	3806.337646
1100.083984	3934.196533
1098.956055	3862.564941
1097.827148	3708.980469
1096.699219	3799.127686
1095.570312	3800.648682
1094.441406	3873.030518
1093.311523	3847.968750
1092.182617	3833.984375
1091.052734	3793.446045
1089.922852	3845.860352
1088.792969	3854.007324
1087.663086	3778.095215
1086.532227	3857.022461
1085.402344	3856.317627
1084.271484	3835.715820
1083.139648	3894.695068
1082.008789	3829.893799
1080.876953	3804.888672
1079.746094	3819.657227
1078.614258	3741.652100
1077.481445	3829.302734
1076.349609	3848.474365
1075.216797	3819.072510
1074.083984	3827.202881
1072.951172	3857.397461
1071.818359	3764.025635
1070.685547	3822.897705
1069.551758	3886.159180
1068.417969	3784.012207
1067.284180	3703.949707
1066.149414	3802.467041
1065.015625	3843.645996
1063.880859	3785.651123
1062.746094	3848.849121
1061.611328	3821.712402
1060.476562	3757.145996
1059.340820	3679.391602
1058.205078	3859.241943
1057.069336	3847.530029
1055.933594	3787.406982
1054.796875	3788.914062
1053.661133	3845.417969
1052.524414	3725.941406
1051.387695	3758.245605
1050.250000	3909.267090
1049.113281	3750.274902
1047.975586	3764.973389
1046.837891	3777.468750
1045.700195	3781.171387
1044.561523	3852.969238
1043.423828	3775.394043
1042.285156	3713.218262
1041.146484	3701.560791
1040.007812	3716.248047
1038.868164	3746.292725
1037.728516	3728.052246
1036.589844	3681.298340
1035.449219	3700.364990
1034.309570	3671.177246
1033.169922	3756.018066
1032.029297	3770.675537
1030.888672	3776.560059
1029.748047	3655.338135
1028.606445	3720.399658
1027.465820	3623.329346
1026.324219	3640.187256
1025.182617	3825.656494
1024.041016	3625.716064
1022.898438	3712.612793
1021.756836	3768.836914
1020.614258	3680.616211
1019.471680	3706.195312
1018.328125	3760.201660
1017.185547	3674.217773
1016.041992	3734.769531
1014.898438	3607.283203
1013.754883	3527.931641
1012.610352	3662.781006
1011.466797	3631.518799
1010.322266	3751.007080
1009.177734	3697.897461
1008.033203	3605.498291
1006.887695	3663.789062
1005.742188	3553.965576
1004.597656	3662.444580
1003.451172	3674.865723
1002.305664	3643.645752
1001.160156	3586.260010
1000.013672	3640.127441
998.867188	3659.084717
997.720703	3658.413086
996.573242	3570.548584
995.426758	3689.761230
994.279297	3686.904541
993.131836	3607.797119
991.983398	3611.491211
990.835938	3652.206543
989.687500	3592.745361
988.539062	3707.467773
987.390625	3665.430908
986.242188	3682.167480
985.092773	3624.919678
983.944336	3574.218994
982.794922	3584.437256
981.644531	3690.335205
980.495117	3609.210938
979.344727	3558.549805
978.194336	3590.497314
977.043945	3644.163086
975.893555	3732.570801
974.742188	3631.962402
973.591797	3574.827393
972.440430	3582.855957
971.289062	3586.539307
970.136719	3622.780518
968.985352	3728.455811
967.833008	3601.920166
966.680664	3583.902344
965.528320	3505.157959
964.375000	3593.427490
963.221680	3549.401855
962.069336	3566.091797
960.915039	3693.314697
959.761719	3618.956055
958.608398	3620.456787
957.454102	3593.795898
956.299805	3547.652100
955.145508	3705.076660
953.990234	3619.958252
952.834961	3656.091064
951.680664	3501.756592
950.525391	3628.779297
949.369141	3556.717529
948.213867	3560.388916
947.057617	3531.619141
945.901367	3574.214111
944.745117	3567.070557
943.588867	3488.601318
942.431641	3626.267090
941.274414	3666.652100
940.117188	3514.758057
938.959961	3555.148438
937.801758	3619.277832
936.644531	3605.656738
935.486328	3520.804199
934.328125	3647.494385
933.168945	3515.191650
932.010742	3663.410645
930.851562	3541.938721
929.692383	3640.493896
928.533203	3495.351562
927.373047	3503.331055
926.213867	3578.127930
925.053711	3545.142090
923.893555	3525.096191
922.732422	3573.995605
921.572266	3450.563965
920.411133	3512.379883
919.250000	3490.201172
918.088867	3554.139404
916.926758	3486.762207
915.765625	3499.030762
914.603516	3541.416260
913.441406	3510.647461
912.279297	3522.904297
911.116211	3573.862793
909.953125	3536.654785
908.790039	3432.824219
907.626953	3550.394287
906.463867	3566.929199
905.299805	3531.897705
904.135742	3550.577637
902.971680	3459.724854
901.807617	3497.735596
900.643555	3452.008057
899.478516	3524.347656
898.313477	3495.799561
897.148438	3484.426514
895.982422	3445.169922
894.817383	3373.756104
893.651367	3512.519043
892.485352	3436.830566
891.319336	3472.637451
890.152344	3476.282715
888.986328	3396.356689
887.819336	3457.859619
886.652344	3502.203613
885.484375	3385.909180
884.317383	3466.650635
883.149414	3483.136963
881.981445	3403.297363
880.813477	3413.368896
879.644531	3444.833008
878.475586	3523.349121
877.307617	3464.948975
876.137695	3487.831787
874.968750	3393.112549
873.798828	3439.514404
872.629883	3415.368652
871.459961	3431.832520
870.289062	3399.150879
869.119141	3415.611328
867.948242	3479.051025
866.777344	3493.354980
865.606445	3413.717529
864.435547	3363.992676
863.263672	3459.406006
862.092773	3518.510742
860.920898	3411.193604
859.748047	3399.898193
858.576172	3461.113037
857.403320	3383.715820
856.230469	3491.809326
855.057617	3486.900635
853.884766	3432.981689
852.710938	3526.091553
851.538086	3421.060791
850.364258	3405.519287
849.189453	3466.641357
848.015625	3442.581055
846.840820	3505.802002
845.666016	3362.563477
844.491211	3513.015869
843.316406	3308.133545
842.140625	3358.569824
840.965820	3426.000244
839.790039	3465.764404
838.613281	3414.102783
837.437500	3424.097900
836.260742	3389.462891
835.083984	3410.082031
833.907227	3517.788330
832.730469	3436.429688
831.552734	3414.558350
830.375977	3450.018555
829.198242	3428.152588
828.019531	3387.193848
826.841797	3492.661865
825.663086	3487.771729
824.484375	3393.796143
823.305664	3499.203857
822.126953	3473.111328
820.947266	3540.306152
819.767578	3461.226562
818.587891	3437.274414
817.408203	3527.744385
816.228516	3427.526855
815.047852	3484.077148
813.867188	3540.606201
812.686523	3457.379150
811.504883	3496.957520
810.324219	3500.541992
809.142578	3472.384521
807.960938	3410.387695
806.779297	3449.944580
805.596680	3343.562744
804.415039	3340.828369
803.232422	3407.858398
802.048828	3449.499512
800.866211	3415.047363
799.682617	3479.913086
798.500000	3270.131348
797.315430	3394.138184
796.131836	3499.093750
794.948242	3394.990234
793.763672	3366.918213
792.579102	3410.614502
791.394531	3342.457031
790.208984	3411.458252
789.024414	3410.825195
787.838867	3486.114746
786.653320	3356.844727
785.466797	3358.329590
784.281250	3300.795898
783.094727	3321.257080
781.908203	3423.883545
780.721680	3338.983154
779.534180	3344.681885
778.347656	3314.579102
777.160156	3396.075684
775.972656	3382.814453
774.784180	3447.430664
773.596680	3383.662109
772.408203	3357.787109
771.219727	3308.782959
770.031250	3394.395020
768.841797	3391.661621
767.653320	3361.599121
766.463867	3363.076416
765.274414	3303.608398
764.083984	3342.916016
762.894531	3285.574463
761.704102	3413.085693
760.513672	3431.351074
759.322266	3405.518066
758.131836	3306.223145
756.940430	3345.485596
755.749023	3294.501709
754.557617	3342.143555
753.365234	3312.155273
752.173828	3313.636475
750.981445	3308.826416
749.789062	3375.297852
748.595703	3347.421143
747.403320	3273.449707
746.209961	3396.462646
745.016602	3284.801270
743.823242	3133.385254
742.628906	3304.520020
741.435547	3257.843262
740.241211	3320.037109
739.046875	3436.624512
737.851562	3293.690674
736.657227	3267.971680
735.461914	3298.739990
734.266602	3329.496826
733.070312	3349.787109
731.875000	3330.347900
730.678711	3434.239014
729.482422	3345.826660
728.286133	3303.414551
727.089844	3309.066650
725.892578	3327.248291
724.695312	3303.657715
723.498047	3371.942627
722.300781	3314.952148
721.102539	3364.425293
719.904297	3324.150879
718.706055	3271.373047
717.507812	3310.396484
716.308594	3255.555176
715.110352	3398.825195
713.911133	3398.191895
712.711914	3295.423340
711.511719	3334.405273
710.311523	3325.449463
709.112305	3399.825684
707.912109	3376.280762
706.710938	3261.116455
705.510742	3416.663330
704.309570	3253.655762
703.108398	3284.268311
701.907227	3335.678223
700.705078	3316.331787
699.502930	3274.110840
698.301758	3279.739258
697.098633	3283.286377
695.896484	3299.305664
694.693359	3311.161621
693.491211	3229.494873
692.287109	3291.226074
691.083984	3332.160156
689.880859	3335.692383
688.676758	3208.395508
687.472656	3340.676514
686.268555	3329.673584
685.063477	3335.278564
683.858398	3330.506104
682.654297	3487.561035
681.448242	3304.371094
680.243164	3309.976074
679.037109	3437.916992
677.832031	3321.178955
676.625977	3345.431885
675.418945	3334.445557
674.212891	3292.383057
673.005859	3316.627441
671.798828	3340.862549
670.591797	3286.396973
669.383789	3283.712891
668.176758	3394.882080
666.968750	3417.014160
665.760742	3296.357666
664.551758	3368.153076
663.343750	3373.729248
662.134766	3282.101562
660.925781	3267.014160
659.715820	3347.030029
658.506836	3356.739258
657.296875	3254.849854
656.086914	3252.175293
654.876953	3228.843506
653.666016	3407.930908
652.456055	3330.887695
651.245117	3239.420898
650.034180	3408.083984
648.822266	3289.806152
647.611328	3214.905762
646.399414	3210.178223
645.187500	3226.079590
643.974609	3250.224121
642.762695	3391.889893
641.549805	3374.762939
640.336914	3229.849854
639.124023	3243.671143
637.910156	3238.943359
636.696289	3314.557861
635.483398	3315.997070
634.268555	3325.672852
633.054688	3314.756104
631.839844	3277.083252
630.625000	3202.378906
629.410156	3242.933594
628.195312	3229.982666
626.979492	3231.434814
625.764648	3300.752197
624.548828	3328.920410
623.332031	3324.185547
622.116211	3331.784668
620.899414	3392.810791
619.682617	3410.666992
618.465820	3403.865479
617.248047	3452.520508
616.031250	3468.301514
614.813477	3508.713379
613.595703	3452.633301
612.376953	3534.078857
611.159180	3586.766602
609.940430	3563.527588
608.721680	3544.399414
607.502930	3447.348877
606.283203	3438.501465
605.063477	3302.556641
603.843750	3414.666748
602.624023	3295.170898
601.403320	3386.751465
600.183594	3255.014648
598.962891	3254.404541
597.742188	3163.695557
596.520508	3222.474365
595.299805	3168.649902
594.078125	3227.405518
592.856445	3292.277588
591.633789	3285.522705
590.412109	3213.317627
589.189453	3263.840088
587.966797	3271.406494
586.743164	3278.969727
585.520508	3212.950928
584.296875	3191.913330
583.073242	3230.133057
581.849609	3192.758057
580.625000	3216.666992
579.401367	3248.734375
578.176758	3254.249268
576.952148	3131.167725
575.726562	3267.313232
574.500977	3217.729980
573.276367	3194.685547
572.049805	3234.878662
570.824219	3226.114258
569.598633	3131.719971
568.372070	3286.057617
567.145508	3201.877930
565.917969	3180.899170
564.691406	3196.600586
563.463867	3143.039062
562.236328	3252.424072
561.008789	3180.546143
559.780273	3202.342529
558.552734	3191.563721
557.324219	3046.475098
556.094727	3100.838867
554.866211	3189.764893
553.636719	3248.148682
552.407227	3107.225098
551.177734	3084.276367
549.948242	3201.596680
548.717773	3064.825684
547.488281	3192.265137
546.256836	3167.285645
545.026367	3105.753174
543.795898	3153.909668
542.564453	3098.493896
541.333008	3122.272217
540.100586	3156.189941
538.869141	3147.479248
537.636719	3106.308350
536.404297	3099.638428
535.171875	3048.350830
533.939453	3076.166504
532.706055	3097.889160
531.472656	3101.360352
530.239258	3189.949463
529.004883	3114.377197
527.771484	2986.160156
526.537109	3032.184814
525.302734	3134.895508
524.067383	3037.117676
522.833008	3052.740967
521.597656	3141.221436
520.362305	3029.332031
519.126953	3079.342285
517.890625	3056.511230
516.654297	3165.148438
515.417969	3103.890137
514.181641	3109.370605
512.944336	3163.360596
511.708008	3124.366943
510.470703	3087.408447
509.233398	3157.532959
507.995117	3150.878662
506.756836	3231.061768
505.518555	3111.329834
504.280273	3292.422363
503.041992	3225.198975
501.802734	3222.573486
500.563477	3213.895996
499.324219	3170.930420
498.084961	3341.756592
496.844727	3282.652100
495.604492	3253.809326
494.364258	3216.914795
493.124023	3133.683838
491.882812	3171.375244
490.642578	3180.849609
489.401367	3204.418945
488.159180	3161.526611
486.917969	3092.477051
485.675781	3140.204834
484.433594	3085.272949
483.191406	3118.898193
481.948242	3055.943604
480.705078	3133.812988
479.462891	3097.022949
478.218750	3062.257080
476.975586	3031.524658
475.731445	3059.091553
474.487305	3080.619141
473.243164	3069.991943
471.999023	3055.351074
470.753906	3036.698730
469.508789	3044.157471
468.263672	3037.560059
467.018555	3016.913818
465.772461	3058.488770
464.526367	2995.709717
463.280273	3049.309326
462.034180	3084.836914
460.787109	3116.340088
459.540039	2997.457275
458.292969	2906.683838
457.045898	3066.473145
455.797852	3059.882324
454.550781	2943.102783
453.302734	3036.692139
452.053711	3042.126709
450.805664	2917.406738
449.556641	2964.902588
448.307617	2964.342285
447.058594	3129.881836
445.808594	3099.277832
444.559570	3030.677002
443.309570	3016.103516
442.059570	3017.532959
440.808594	2998.968750
439.557617	3040.379395
438.307617	3045.800049
437.055664	2939.320801
435.804688	3010.685791
434.552734	3002.126709
433.300781	2941.647461
432.048828	3046.914551
430.796875	2952.512451
429.543945	3037.778320
428.291016	3035.208008
427.038086	3032.638672
425.785156	3071.960449
424.531250	3005.563965
423.278320	3084.756104
422.023438	3116.070801
420.769531	3147.373291
419.515625	3092.969482
418.260742	3277.687988
417.005859	3340.815918
415.750000	3437.779785
414.495117	3470.982666
413.239258	3667.435059
411.983398	3579.153076
410.727539	3640.173096
409.470703	3498.202637
408.214844	3376.180664
406.958008	3331.780518
405.700195	3178.015869
404.443359	3187.355713
403.185547	3051.568604
401.927734	3102.668457
400.669922	3060.348633
399.411133	3079.637451
398.153320	3041.310547
396.894531	3026.831543
395.635742	2948.814453
394.375977	2989.947998
393.116211	2842.492676
391.857422	3058.275879
390.596680	2960.468994
389.336914	2906.343750
388.076172	2979.181396
386.815430	2946.886963
385.554688	2944.345459
384.293945	2912.069580
383.032227	2933.319092
381.770508	2984.284180
380.508789	2892.582031
379.247070	2949.478027
377.984375	2968.723145
376.721680	2954.299316
375.458984	2868.611084
374.196289	2899.736328
372.932617	2916.996826
371.668945	2861.042725
370.405273	2852.586914
369.141602	2875.779785
367.876953	2926.647949
366.613281	2947.840576
365.347656	2878.095947
364.083008	2944.745361
362.818359	2983.705566
361.552734	2912.017822
360.287109	2885.787109
359.020508	2879.314697
357.754883	2882.717041
356.488281	2866.376709
355.221680	2897.411865
353.955078	2843.581543
352.687500	2823.311768
351.419922	2820.802734
350.152344	2855.766846
348.884766	2800.012695
347.616211	2850.739014
346.348633	2881.734863
345.080078	2853.597168
343.810547	2880.639648
342.541992	2866.302490
341.272461	2883.484131
340.002930	2878.997559
338.733398	2789.852295
337.462891	2783.416748
336.193359	2776.983154
334.922852	2845.325439
333.651367	2771.992676
332.380859	2781.300537
331.109375	2826.003418
329.837891	2852.993164
328.566406	2742.363037
327.293945	2816.529541
326.022461	2810.098389
324.750000	2750.622070
323.477539	2862.067139
322.204102	2839.918701
320.930664	2782.433838
319.657227	2887.919189
318.383789	2971.772705
317.110352	2820.095703
315.835938	2907.854004
314.561523	2875.912842
313.287109	2940.090576
312.011719	2888.545166
310.737305	3044.844971
309.461914	3007.020508
308.185547	2975.090088
306.910156	3190.068848
305.633789	3212.970947
304.357422	3376.894531
303.081055	3579.923340
301.804688	3788.748535
300.527344	3901.569824
299.250000	4026.091553
297.972656	4087.945312
296.694336	4089.123047
295.416992	4506.958984
294.138672	4963.751465
292.860352	5293.268066
291.581055	4901.253906
290.301758	4366.699219
289.022461	3746.359375
287.743164	3450.604980
286.463867	3414.783691
285.183594	3134.830078
283.903320	3050.262451
282.623047	2973.536621
281.342773	2910.504150
280.061523	2865.060547
278.780273	2911.345703
277.499023	2830.802246
276.216797	2863.421875
274.935547	2771.217041
273.653320	2679.047119
272.370117	2678.536133
271.087891	2785.224121
269.804688	2712.590820
268.521484	2714.021729
267.238281	2690.128418
265.955078	2738.304688
264.670898	2726.098877
263.386719	2727.525635
262.102539	2699.754395
260.817383	2728.430664
259.533203	2778.498779
258.248047	2890.799072
256.962891	2701.583740
255.676758	2823.578613
254.390625	2735.548584
253.104492	2795.286377
251.818359	2783.091553
250.532227	2868.057861
249.245117	2844.197021
247.958008	2876.674316
246.670898	2903.312988
245.382812	2885.283691
244.095703	2840.083252
242.807617	2783.254395
241.518555	2773.020020
240.230469	2718.165771
238.941406	2729.285156
237.652344	2786.946045
236.363281	2782.535400
235.074219	2832.409424
233.784180	2905.523682
232.494141	3027.058350
231.204102	3266.738037
229.913086	3775.596191
228.622070	4433.395508
227.331055	5209.066406
226.040039	5417.167969
224.749023	4454.081543
223.457031	3555.229248
222.165039	3161.749512
220.873047	2892.234619
219.580078	2837.522949
218.287109	2763.493164
216.994141	2664.356201
215.701172	2671.579102
214.407227	2711.655762
213.114258	2612.585205
211.820312	2637.201660
210.525391	2598.063965
209.231445	2417.958008
207.936523	2504.385986
206.641602	2532.864746
205.346680	2486.055908
204.050781	2493.299316
202.754883	2483.174805
201.458984	2476.912109
200.163086	2462.937012
198.866211	2499.103516
197.569336	2458.137939
196.272461	2446.101807
194.975586	2441.778809
193.677734	2458.652832
192.379883	2460.108398
191.082031	2465.415283
189.784180	2516.937988
188.485352	2466.396240
187.187500	2421.648682
185.887695	2417.335449
184.588867	2443.811768
183.289062	2458.734619
181.989258	2450.569336
180.689453	2402.020752
179.389648	2453.475586
178.088867	2426.091309
176.788086	2375.653076
175.487305	2380.962646
174.186523	2405.483154
172.884766	2470.333984
171.583008	2377.672607
170.281250	2350.333740
168.979492	2455.474365
167.676758	2372.466064
166.374023	2444.936768
165.071289	2440.630371
163.767578	2457.427490
162.463867	2372.564209
161.160156	2387.449951
159.856445	2377.405518
158.552734	2304.107422
157.248047	2345.828857
155.943359	2389.450195
154.638672	2304.696777
153.333008	2331.070312
152.027344	2368.924072
150.721680	2332.090332
149.416016	2375.671875
148.110352	2296.743652
146.803711	2298.216309
145.497070	2408.741699
144.189453	2320.288086
142.882812	2321.754883
141.575195	2288.802979
140.267578	2338.068848
138.959961	2345.265137
137.651367	2291.306396
136.342773	2296.598145
135.034180	2271.323242
133.725586	2301.445312
132.416016	2194.068604
131.106445	2237.558105
129.796875	2242.854492
128.487305	2282.500732
127.176758	2135.140137
125.866211	2058.421143
124.555664	2002.712402
123.244141	2084.327393
121.933594	2022.915161
120.622070	2007.276245
119.309570	1924.937500
117.998047	1857.874390
116.685547	1771.785645
115.373047	1603.824219
114.060547	1519.721558
112.748047	1317.600342
111.434570	1168.859741
110.121094	959.270386
108.806641	801.141113
107.493164	707.760437
106.178711	549.740356
104.864258	410.799561
103.549805	309.941864
102.234375	222.430786
100.918945	169.166916
99.603516	98.820076
