#Wave		#Intensity
1998.943359	2363.691406
1997.975586	2319.775879
1997.007812	2427.849854
1996.039062	2306.055420
1995.071289	2442.495117
1994.102539	2457.558350
1993.133789	2348.727051
1992.165039	2381.864990
1991.196289	2324.687256
1990.227539	2350.078613
1989.257812	2414.149414
1988.288086	2390.519531
1987.318359	2400.416016
1986.348633	2327.816895
1985.378906	2306.791748
1984.409180	2350.197998
1983.438477	2316.293213
1982.467773	2290.128662
1981.497070	2397.905273
1980.526367	2366.584961
1979.555664	2276.056885
1978.584961	2311.699707
1977.613281	2277.836670
1976.641602	2449.855469
1975.669922	2369.667236
1974.698242	2382.116211
1973.726562	2294.251465
1972.753906	2373.570312
1971.782227	2396.296143
1970.809570	2357.317871
1969.836914	2279.799316
1968.863281	2320.518066
1967.890625	2307.266357
1966.917969	2358.241455
1965.944336	2537.620605
1964.970703	2308.626221
1963.997070	2364.709229
1963.023438	2348.893799
1962.048828	2386.983398
1961.075195	2422.493408
1960.100586	2319.440430
1959.125977	2365.210938
1958.151367	2272.463135
1957.176758	2348.998535
1956.201172	2379.355713
1955.226562	2391.757812
1954.250977	2358.020264
1953.275391	2334.544678
1952.299805	2413.564209
1951.323242	2315.797119
1950.347656	2389.669678
1949.371094	2363.643799
1948.394531	2340.187500
1947.417969	2373.057617
1946.441406	2354.726562
1945.464844	2349.197021
1944.487305	2353.903809
1943.509766	2320.236572
1942.532227	2273.792480
1941.554688	2347.555420
1940.577148	2352.258789
1939.599609	2344.178467
1938.621094	2287.538818
1937.642578	2407.245605
1936.664062	2391.494629
1935.685547	2403.849365
1934.707031	2372.779785
1933.727539	2385.133301
1932.749023	2364.290283
1931.769531	2323.032471
1930.790039	2355.806641
1929.810547	2240.559570
1928.830078	2372.842773
1927.850586	2428.549561
1926.870117	2305.698486
1925.889648	2399.649170
1924.909180	2450.222412
1923.928711	2370.768311
1922.948242	2329.573242
1921.966797	2275.650879
1920.985352	2344.045410
1920.003906	2315.613525
1919.022461	2343.225342
1918.041016	2345.361816
1917.059570	2378.050537
1916.077148	2390.362549
1915.094727	2359.401855
1914.112305	2430.242188
1913.129883	2305.145508
1912.147461	2350.531738
1911.164062	2378.097900
1910.180664	2370.052734
1909.197266	2344.212402
1908.213867	2272.623535
1907.230469	2335.766846
1906.247070	2391.264160
1905.262695	2271.430176
1904.278320	2291.354736
1903.294922	2331.591309
1902.309570	2260.079346
1901.325195	2285.073242
1900.340820	2426.830566
1899.355469	2368.029541
1898.370117	2349.851318
1897.384766	2270.786865
1896.399414	2227.264404
1895.414062	2412.024170
1894.427734	2376.099609
1893.442383	2347.793945
1892.456055	2299.218018
1891.469727	2288.677002
1890.482422	2283.207764
1889.496094	2409.489746
1888.508789	2353.337158
1887.522461	2363.055664
1886.535156	2423.416992
1885.547852	2412.864746
1884.559570	2301.059326
1883.572266	2262.691406
1882.583984	2310.374756
1881.595703	2269.488281
1880.607422	2317.153809
1879.619141	2316.747559
1878.630859	2273.352295
1877.641602	2328.576660
1876.653320	2257.387939
1875.664062	2385.890869
1874.674805	2299.555176
1873.684570	2412.846191
1872.695312	2339.166016
1871.705078	2232.678223
1870.715820	2421.677490
1869.725586	2363.183105
1868.735352	2342.573975
1867.744141	2327.019775
1866.753906	2366.986328
1865.762695	2240.421387
1864.771484	2303.092041
1863.780273	2390.961914
1862.789062	2357.760498
1861.797852	2400.207764
1860.805664	2374.578613
1859.813477	2255.705811
1858.821289	2230.110840
1857.829102	2373.328613
1856.836914	2317.493652
1855.844727	2337.235352
1854.851562	2238.617920
1853.858398	2321.308838
1852.865234	2227.763184
1851.872070	2370.829834
1850.878906	2345.249756
1849.884766	2304.583252
1848.890625	2276.508301
1847.897461	2359.104736
1846.903320	2300.854736
1845.908203	2282.851562
1844.914062	2342.779785
1843.918945	2312.208984
1842.923828	2326.879883
1841.929688	2263.661377
1840.933594	2280.847412
1839.938477	2325.653809
1838.943359	2365.422119
1837.947266	2349.942871
1836.951172	2256.653320
1835.955078	2236.178711
1834.958984	2288.481201
1833.961914	2265.499268
1832.965820	2413.097656
1831.968750	2304.830566
1830.971680	2344.546143
1829.974609	2406.811279
1828.977539	2273.535645
1827.979492	2328.272705
1826.982422	2355.426758
1825.984375	2344.991455
1824.986328	2296.986084
1823.988281	2261.520020
1822.989258	2316.210449
1821.991211	2308.292480
1820.992188	2270.339600
1819.993164	2194.859619
1818.994141	2274.545654
1817.995117	2329.185547
1816.995117	2336.279785
1815.996094	2353.375488
1814.996094	2262.943848
1813.996094	2372.547852
1812.996094	2364.631592
1811.996094	2279.243896
1810.995117	2351.306152
1809.994141	2335.902588
1808.993164	2278.041016
1807.992188	2387.526367
1806.991211	2382.112061
1805.990234	2364.217285
1804.988281	2301.398682
1803.986328	2343.419922
1802.984375	2402.892578
1801.982422	2285.215088
1800.980469	2349.665527
1799.977539	2306.855713
1798.975586	2194.243896
1797.972656	2313.522461
1796.969727	2290.681885
1795.966797	2300.247070
1794.962891	2297.350342
1793.959961	2264.559326
1792.956055	2326.431152
1791.952148	2316.060059
1790.948242	2333.081787
1789.943359	2272.922607
1788.939453	2357.150635
1787.934570	2287.053711
1786.929688	2363.784668
1785.924805	2336.002930
1784.919922	2265.946533
1783.915039	2250.625977
1782.909180	2287.526123
1781.903320	2364.189209
1780.897461	2324.003418
1779.891602	2306.197998
1778.885742	2300.822266
1777.879883	2302.900879
1776.873047	2314.914062
1775.866211	2371.623779
1774.859375	2252.024658
1773.852539	2261.557617
1772.844727	2290.943848
1771.837891	2156.532227
1770.830078	2287.654785
1769.822266	2284.770752
1768.814453	2299.249756
1767.806641	2281.485107
1766.797852	2206.699707
1765.789062	2317.865723
1764.781250	2292.671143
1763.772461	2274.919922
1762.762695	2276.996338
1761.753906	2370.730225
1760.744141	2335.636719
1759.735352	2325.319092
1758.725586	2297.673584
1757.714844	2386.386475
1756.705078	2249.836670
1755.695312	2264.287354
1754.684570	2273.784668
1753.673828	2248.645752
1752.663086	2272.982178
1751.652344	2312.147217
1750.640625	2190.589111
1749.629883	2269.306885
1748.618164	2224.417969
1747.606445	2137.535400
1746.594727	2248.339844
1745.583008	2299.818604
1744.570312	2252.485596
1743.557617	2313.822754
1742.545898	2249.221436
1741.533203	2330.285400
1740.519531	2285.448486
1739.506836	2228.288818
1738.493164	2306.846191
1737.479492	2271.903809
1736.465820	2315.896729
1735.452148	2204.521973
1734.438477	2285.493164
1733.423828	2260.438965
1732.410156	2237.858154
1731.395508	2289.210449
1730.380859	2281.414795
1729.366211	2263.768555
1728.350586	2280.608643
1727.334961	2208.795410
1726.320312	2235.486816
1725.304688	2318.784668
1724.288086	2298.686035
1723.272461	2217.077148
1722.256836	2228.986328
1721.240234	2196.614746
1720.223633	2324.114258
1719.207031	2240.099365
1718.190430	2185.615967
1717.172852	2222.100830
1716.155273	2320.013672
1715.138672	2231.143799
1714.121094	2255.317139
1713.102539	2304.045166
1712.084961	2276.622559
1711.066406	2290.952881
1710.048828	2290.547607
1709.030273	2363.780518
1708.011719	2228.383301
1706.992188	2345.768311
1705.973633	2220.235107
1704.954102	2320.409668
1703.934570	2337.166260
1702.915039	2292.616699
1701.895508	2326.532959
1700.875977	2282.000977
1699.855469	2264.442383
1698.834961	2232.188232
1697.814453	2295.488770
1696.793945	2273.037842
1695.773438	2297.125244
1694.751953	2230.608398
1693.730469	2252.246338
1692.709961	2251.847656
1691.687500	2258.790771
1690.666016	2233.922852
1689.644531	2257.990967
1688.622070	2255.145264
1687.599609	2293.873779
1686.577148	2320.363281
1685.554688	2231.945801
1684.532227	2324.429932
1683.508789	2250.705566
1682.485352	2189.223633
1681.461914	2288.994629
1680.438477	2303.243896
1679.415039	2312.604004
1678.391602	2246.271240
1677.367188	2265.402588
1676.342773	2279.645508
1675.318359	2308.525391
1674.293945	2251.999268
1673.268555	2246.721436
1672.244141	2312.176270
1671.218750	2284.942383
1670.193359	2277.222900
1669.167969	2271.943848
1668.141602	2264.229492
1667.116211	2254.080566
1666.089844	2336.519043
1665.063477	2302.001221
1664.037109	2311.335205
1663.010742	2313.360596
1661.983398	2361.644043
1660.957031	2215.170166
1659.929688	2231.814209
1658.902344	2301.986816
1657.875000	2221.290771
1656.846680	2293.872803
1655.819336	2252.120361
1654.791016	2241.994141
1653.762695	2273.202393
1652.734375	2219.321533
1651.705078	2372.041260
1650.676758	2237.973877
1649.647461	2261.871826
1648.618164	2317.339355
1647.588867	2280.498291
1646.559570	2289.806641
1645.529297	2350.094971
1644.500000	2342.395752
1643.469727	2247.330078
1642.439453	2293.034424
1641.409180	2304.757812
1640.377930	2304.348877
1639.347656	2282.113037
1638.316406	2247.760986
1637.285156	2315.243408
1636.253906	2360.886719
1635.222656	2309.574463
1634.190430	2275.241699
1633.158203	2366.897217
1632.125977	2339.832764
1631.093750	2261.921143
1630.061523	2251.833984
1629.029297	2413.634277
1627.996094	2352.693848
1626.962891	2323.235596
1625.929688	2315.563965
1624.896484	2392.566406
1623.863281	2411.491211
1622.829102	2403.807861
1621.794922	2396.127197
1620.760742	2335.264893
1619.726562	2330.015869
1618.692383	2409.349609
1617.657227	2442.747803
1616.622070	2420.572021
1615.587891	2364.589600
1614.551758	2393.147949
1613.516602	2416.867188
1612.481445	2293.322266
1611.445312	2430.489502
1610.409180	2417.991699
1609.373047	2506.833008
1608.336914	2407.482666
1607.300781	2387.759521
1606.263672	2353.574707
1605.226562	2408.609619
1604.189453	2367.201172
1603.152344	2388.471680
1602.115234	2438.651367
1601.077148	2373.166260
1600.039062	2428.148438
1599.000977	2463.843262
1597.962891	2415.244629
1596.924805	2364.255371
1595.885742	2457.714111
1594.847656	2368.227783
1593.808594	2314.867432
1592.769531	2386.632080
1591.730469	2484.830811
1590.690430	2460.338379
1589.651367	2392.571777
1588.611328	2411.379395
1587.571289	2471.043701
1586.531250	2364.858154
1585.490234	2378.854492
1584.450195	2443.297363
1583.409180	2409.233887
1582.368164	2363.174561
1581.327148	2381.963135
1580.285156	2431.954834
1579.244141	2400.317627
1578.202148	2387.890625
1577.160156	2332.277832
1576.118164	2403.833496
1575.076172	2422.594238
1574.033203	2338.226318
1572.991211	2428.924561
1571.948242	2313.420166
1570.905273	2310.611084
1569.862305	2305.406494
1568.818359	2293.015625
1567.775391	2412.387939
1566.731445	2323.336182
1565.687500	2346.869629
1564.643555	2310.536377
1563.598633	2358.002930
1562.554688	2319.286865
1561.509766	2215.971924
1560.464844	2313.675049
1559.419922	2341.968994
1558.374023	2276.973633
1557.329102	2302.872559
1556.283203	2285.725342
1555.237305	2294.879883
1554.191406	2241.889160
1553.145508	2320.347656
1552.098633	2353.383057
1551.052734	2252.634033
1550.005859	2285.669434
1548.958984	2256.606445
1547.912109	2246.654053
1546.864258	2360.833740
1545.816406	2386.665771
1544.769531	2245.451904
1543.721680	2273.681152
1542.672852	2220.796875
1541.625000	2208.475830
1540.576172	2298.694336
1539.528320	2314.972900
1538.479492	2264.502441
1537.430664	2233.115967
1536.380859	2273.225586
1535.332031	2258.525391
1534.282227	2236.684326
1533.232422	2348.218506
1532.182617	2188.263428
1531.132812	2235.486816
1530.082031	2206.524414
1529.031250	2227.549316
1527.981445	2181.942139
1526.929688	2295.745117
1525.878906	2269.170654
1524.828125	2218.824219
1523.776367	2273.115967
1522.724609	2182.372070
1521.672852	2200.997314
1520.621094	2248.133545
1519.569336	2304.756836
1518.516602	2271.086670
1517.463867	2244.553711
1516.411133	2265.525635
1515.358398	2310.233398
1514.305664	2226.733643
1513.251953	2226.335693
1512.198242	2304.249268
1511.144531	2208.931641
1510.090820	2210.909180
1509.037109	2151.218994
1507.982422	2203.004883
1506.927734	2250.030029
1505.873047	2242.516357
1504.818359	2308.478271
1503.763672	2191.951416
1502.708984	2151.282227
1501.653320	2276.445557
1500.597656	2294.985840
1499.541992	2154.864502
1498.486328	2277.592285
1497.429688	2194.335205
1496.373047	2212.876465
1495.317383	2335.527588
1494.260742	2268.865723
1493.203125	2270.825439
1492.146484	2275.149170
1491.088867	2329.127930
1490.031250	2186.860840
1488.973633	2214.834717
1487.916016	2202.621826
1486.858398	2209.316406
1485.799805	2265.620605
1484.741211	2163.646484
1483.682617	2212.853760
1482.624023	2177.039551
1481.565430	2259.277588
1480.505859	2291.918457
1479.446289	2140.471680
1478.386719	2210.874268
1477.327148	2226.992188
1476.267578	2250.180176
1475.207031	2271.001709
1474.147461	2178.639404
1473.086914	2201.823486
1472.026367	2234.427246
1470.964844	2193.965332
1469.904297	2172.367188
1468.842773	2181.400879
1467.781250	2211.629150
1466.719727	2234.781982
1465.658203	2241.445068
1464.595703	2196.316650
1463.533203	2177.094482
1462.471680	2186.117188
1461.409180	2239.839111
1460.345703	2279.427979
1459.283203	2217.869385
1458.219727	2196.308350
1457.156250	2205.319092
1456.092773	2174.365234
1455.029297	2159.874023
1453.965820	2175.935791
1452.901367	2180.244385
1451.836914	2177.504639
1450.772461	2238.176758
1449.708008	2188.464600
1448.642578	2230.331299
1447.578125	2161.859863
1446.512695	2238.919189
1445.447266	2226.785400
1444.381836	2177.119385
1443.315430	2193.148193
1442.250000	2220.897217
1441.183594	2267.394287
1440.117188	2201.345703
1439.050781	2203.294922
1437.983398	2284.922363
1436.916992	2230.621582
1435.849609	2225.535889
1434.782227	2243.874756
1433.714844	2112.329590
1432.647461	2271.166504
1431.579102	2177.119385
1430.510742	2200.134277
1429.442383	2234.841797
1428.374023	2178.287109
1427.305664	2224.682373
1426.236328	2245.333008
1425.167969	2188.806885
1424.098633	2190.751953
1423.028320	2143.605957
1421.958984	2236.709717
1420.889648	2180.225098
1419.819336	2175.160889
1418.749023	2216.817383
1417.678711	2216.419434
1416.608398	2173.989258
1415.537109	2220.292725
1414.465820	2142.862793
1413.395508	2219.495117
1412.323242	2125.759033
1411.251953	2137.042480
1410.180664	2260.286133
1409.108398	2250.551270
1408.036133	2145.217773
1406.963867	2221.766602
1405.891602	2207.381836
1404.818359	2172.027588
1403.746094	2148.336426
1402.672852	2213.181152
1401.599609	2210.454102
1400.525391	2177.453125
1399.452148	2253.899170
1398.377930	2197.622314
1397.303711	2225.158203
1396.229492	2175.887939
1395.155273	2184.803711
1394.081055	2144.863525
1393.005859	2181.692139
1391.930664	2188.276367
1390.855469	2185.557861
1389.780273	2240.956299
1388.704102	2245.201660
1387.628906	2265.712158
1386.552734	2195.602783
1385.476562	2243.990234
1384.400391	2238.941650
1383.323242	2245.505127
1382.247070	2261.353271
1381.169922	2253.982422
1380.092773	2416.038818
1379.014648	2278.696533
1377.937500	2224.925537
1376.859375	2331.228027
1375.782227	2300.658691
1374.704102	2230.680908
1373.625000	2258.099854
1372.546875	2234.513916
1371.467773	2250.334473
1370.388672	2229.075195
1369.309570	2305.125244
1368.230469	2239.854004
1367.151367	2220.923828
1366.071289	2257.571289
1364.991211	2247.904541
1363.911133	2277.589844
1362.831055	2295.693359
1361.750977	2304.535156
1360.669922	2278.672852
1359.588867	2238.942139
1358.507812	2335.665527
1357.426758	2295.938721
1356.345703	2244.667480
1355.263672	2258.130859
1354.181641	2338.604736
1353.099609	2280.421875
1352.017578	2296.181152
1350.935547	2351.198486
1349.852539	2253.788086
1348.769531	2290.322510
1347.686523	2296.834961
1346.603516	2379.507324
1345.520508	2249.855957
1344.436523	2360.192627
1343.352539	2246.738281
1342.268555	2257.864746
1341.184570	2239.010498
1340.100586	2252.439697
1339.015625	2330.405273
1337.930664	2286.197021
1336.845703	2255.829834
1335.760742	2345.271240
1334.675781	2280.353516
1333.589844	2305.274902
1332.503906	2369.330566
1331.417969	2221.566162
1330.332031	2393.794922
1329.246094	2289.803955
1328.159180	2293.992676
1327.072266	2240.667725
1325.985352	2265.564209
1324.898438	2290.451660
1323.811523	2299.235107
1322.723633	2331.003662
1321.635742	2321.389404
1320.547852	2337.056396
1319.459961	2249.326660
1318.371094	2297.161133
1317.283203	2315.120361
1316.194336	2280.257324
1315.105469	2233.927246
1314.016602	2240.410645
1312.926758	2272.137207
1311.837891	2209.770752
1310.748047	2317.201904
1309.658203	2312.195801
1308.568359	2316.364990
1307.477539	2215.053955
1306.387695	2237.579834
1305.296875	2205.085205
1304.206055	2223.020996
1303.114258	2318.856445
1302.023438	2242.836426
1300.931641	2279.079590
1299.840820	2223.705078
1298.748047	2230.172363
1297.656250	2197.719238
1296.564453	2208.766357
1295.471680	2212.944092
1294.378906	2244.576904
1293.286133	2186.980225
1292.193359	2147.702148
1291.099609	2186.189697
1290.006836	2190.367432
1288.913086	2160.253662
1287.819336	2125.579590
1286.725586	2207.460693
1285.630859	2184.214111
1284.536133	2167.828857
1283.442383	2192.560059
1282.346680	2183.029541
1281.251953	2162.086914
1280.157227	2109.194092
1279.061523	2181.845215
1277.965820	2233.933105
1276.870117	2187.900146
1275.774414	2141.883789
1274.677734	2152.899414
1273.581055	2188.992920
1272.485352	2127.042725
1271.387695	2112.981445
1270.291016	2217.431396
1269.194336	2157.787842
1268.096680	2157.397217
1266.999023	2179.784180
1265.901367	2079.187744
1264.803711	2176.718018
1263.705078	2039.734741
1262.606445	2239.660156
1261.507812	2120.920166
1260.409180	2093.233154
1259.310547	2095.128906
1258.210938	2083.377441
1257.111328	2108.014404
1256.011719	2146.283936
1254.912109	2150.441650
1253.812500	2122.778564
1252.711914	2063.312500
1251.612305	2128.825684
1250.511719	2112.539062
1249.410156	1971.345947
1248.309570	2073.171387
1247.208008	2068.255127
1246.107422	2070.150391
1245.005859	1974.456665
1243.903320	2037.633057
1242.801758	2071.293701
1241.699219	2068.650146
1240.597656	2115.899902
1239.495117	2024.819092
1238.391602	2015.383911
1237.289062	2107.949707
1236.185547	2039.581543
1235.082031	2012.022217
1233.978516	2025.249756
1232.875000	2024.882446
1231.771484	2092.452148
1230.666992	2042.261353
1229.562500	2089.429443
1228.458008	2082.260498
1227.353516	2054.727783
1226.248047	2031.730103
1225.143555	2053.982666
1224.038086	2035.516479
1222.931641	1983.137939
1221.826172	2018.951904
1220.720703	1986.939209
1219.614258	2022.739502
1218.507812	2058.526611
1217.401367	2040.079224
1216.294922	2017.120850
1215.187500	2093.540527
1214.080078	2093.160400
1212.972656	1943.780029
1211.865234	1986.313477
1210.757812	1958.871704
1209.649414	2028.463135
1208.541016	2102.541016
1207.432617	1975.849365
1206.324219	2070.205811
1205.215820	1954.839355
1204.106445	2008.587769
1202.997070	1947.367798
1201.887695	2023.632690
1200.778320	2043.542847
1199.668945	1953.064941
1198.558594	1952.710083
1197.448242	1927.585083
1196.337891	1999.281006
1195.227539	1942.641968
1194.117188	1989.552124
1193.005859	2016.193237
1191.894531	1916.835327
1190.783203	1970.472534
1189.671875	2021.841187
1188.559570	1963.010620
1187.447266	1982.887451
1186.334961	1953.306030
1185.222656	1910.251343
1184.110352	1979.559326
1182.998047	1949.994507
1181.884766	1978.839600
1180.771484	1933.565430
1179.658203	1948.931030
1178.543945	1917.148071
1177.430664	1972.911743
1176.316406	1927.671265
1175.202148	1983.412598
1174.087891	1882.104736
1172.972656	1953.533936
1171.858398	1928.511597
1170.743164	1946.097168
1169.627930	1896.427002
1168.512695	1985.731323
1167.396484	1987.610840
1166.281250	1964.844971
1165.165039	1921.927368
1164.048828	1887.983521
1162.931641	1934.662964
1161.815430	1918.639404
1160.698242	1913.813477
1159.581055	1929.130859
1158.463867	1892.978760
1157.346680	1937.377197
1156.228516	1970.575806
1155.111328	1934.435547
1153.993164	1900.544312
1152.875000	1859.958740
1151.755859	1917.733154
1150.637695	1930.792236
1149.518555	1912.566162
1148.399414	1992.638184
1147.280273	1920.803467
1146.160156	1895.889648
1145.041016	1857.588867
1143.920898	1872.876343
1142.800781	1892.621948
1141.680664	1890.045654
1140.559570	1851.773315
1139.439453	1978.582764
1138.318359	1904.624268
1137.197266	1877.519287
1136.075195	1899.471313
1134.954102	1894.667114
1133.832031	1916.607910
1132.709961	1885.063599
1131.587891	1878.036621
1130.465820	1862.102539
1129.342773	1906.302734
1128.220703	1903.728638
1127.097656	1818.786865
1125.974609	1847.390137
1124.850586	1911.588867
1123.727539	1851.166382
1122.603516	1884.197144
1121.479492	1850.491211
1120.355469	1805.678833
1119.230469	1905.399658
1118.106445	1820.580688
1116.981445	1860.254028
1115.856445	1864.358887
1114.730469	1877.348999
1113.605469	1830.359009
1112.479492	1861.117676
1111.353516	1827.470581
1110.227539	1833.797363
1109.101562	1817.924805
1107.974609	1853.101562
1106.848633	1752.913818
1105.721680	1812.492554
1104.594727	1834.342407
1103.466797	1876.143188
1102.339844	1764.937744
1101.211914	1784.567139
1100.083984	1835.219604
1098.956055	1859.260986
1097.827148	1854.490234
1096.699219	1836.429688
1095.570312	1809.516235
1094.441406	1818.043457
1093.311523	1899.630249
1092.182617	1815.165771
1091.052734	1801.554932
1089.922852	1891.950928
1088.792969	1823.020752
1087.663086	1807.203613
1086.532227	1811.296631
1085.402344	1810.965576
1084.271484	1846.007324
1083.139648	1825.776489
1082.008789	1860.802490
1080.876953	1825.109131
1079.746094	1917.560791
1078.614258	1868.617310
1077.481445	1870.484131
1076.349609	1814.943115
1075.216797	1836.686890
1074.083984	1820.901001
1072.951172	1756.572266
1071.818359	1793.758911
1070.685547	1839.755737
1069.551758	1823.980469
1068.417969	1808.210938
1067.284180	1860.793823
1066.149414	1811.958130
1065.015625	1822.646362
1063.880859	1855.365723
1062.746094	1830.791992
1061.611328	1801.821655
1060.476562	1759.648071
1059.340820	1818.777710
1058.205078	1871.281006
1057.069336	1813.709839
1055.933594	1756.159668
1054.796875	1813.046021
1053.661133	1810.514282
1052.524414	1770.591919
1051.387695	1763.670532
1050.250000	1776.539795
1049.113281	1820.180298
1047.975586	1830.836426
1046.837891	1841.488647
1045.700195	1834.560181
1044.561523	1856.190918
1043.423828	1831.692017
1042.285156	1769.872192
1041.146484	1822.239258
1040.007812	1771.418945
1038.868164	1878.633057
1037.728516	1830.015137
1036.589844	1790.190308
1035.449219	1774.508179
1034.309570	1804.885742
1033.169922	1876.912720
1032.029297	1850.261719
1030.888672	1812.661133
1029.748047	1786.031616
1028.606445	1790.086304
1027.465820	1785.376953
1026.324219	1760.956909
1025.182617	1736.545898
1024.041016	1784.395264
1022.898438	1801.580444
1021.756836	1715.893188
1020.614258	1807.484619
1019.471680	1804.965332
1018.328125	1769.635376
1017.185547	1804.303345
1016.041992	1773.359619
1014.898438	1781.779297
1013.754883	1794.567383
1012.610352	1778.940186
1011.466797	1769.873779
1010.322266	1808.872314
1009.177734	1869.698853
1008.033203	1755.796875
1006.887695	1755.474609
1005.742188	1796.630005
1004.597656	1761.378296
1003.451172	1787.241699
1002.305664	1797.822876
1001.160156	1801.855713
1000.013672	1790.619873
998.867188	1794.652344
997.720703	1805.223999
996.573242	1752.576904
995.426758	1723.922607
994.279297	1786.797729
993.131836	1749.433105
991.983398	1690.299805
990.835938	1766.213135
989.687500	1746.291992
988.539062	1767.741455
987.390625	1678.175293
986.242188	1734.448853
985.092773	1799.404907
983.944336	1794.723389
982.794922	1861.819458
981.644531	1763.619263
980.495117	1754.598389
979.344727	1754.275879
978.194336	1788.728394
977.043945	1734.073975
975.893555	1707.683716
974.742188	1772.536621
973.591797	1696.196899
972.440430	1719.770874
971.289062	1719.454712
970.136719	1738.674194
968.985352	1742.695068
967.833008	1777.091919
966.680664	1713.851562
965.528320	1689.677002
964.375000	1739.244873
963.221680	1760.607422
962.069336	1680.073608
960.915039	1794.638794
959.761719	1824.647217
958.608398	1763.645630
957.454102	1758.988770
956.299805	1756.499268
955.145508	1760.506958
953.990234	1803.484009
952.834961	1684.096436
951.680664	1670.801025
950.525391	1765.703003
949.369141	1722.109009
948.213867	1739.096436
947.057617	1747.427002
945.901367	1757.916626
944.745117	1744.621826
943.588867	1714.040161
942.431641	1711.563477
941.274414	1756.622314
940.117188	1736.856445
938.959961	1699.818848
937.801758	1852.828369
936.644531	1712.147217
935.486328	1668.658325
934.328125	1713.674805
933.168945	1730.622192
932.010742	1721.673462
930.851562	1725.670532
929.692383	1701.628906
928.533203	1733.659790
927.373047	1804.484985
926.213867	1726.554443
925.053711	1773.648560
923.893555	1708.680542
922.732422	1781.612061
921.572266	1667.126465
920.411133	1718.503418
919.250000	1707.421143
918.088867	1707.106323
916.926758	1767.056641
915.765625	1706.476929
914.603516	1633.010254
913.441406	1770.381592
912.279297	1744.246338
911.116211	1715.970215
909.953125	1698.454224
908.790039	1751.879639
907.626953	1736.512451
906.463867	1729.745850
905.299805	1768.097168
904.135742	1729.107666
902.971680	1677.247192
901.807617	1706.998047
900.643555	1670.187988
899.478516	1712.807251
898.313477	1684.593384
897.148438	1705.738403
895.982422	1585.293091
894.817383	1638.620239
893.651367	1683.350098
892.485352	1725.919312
891.319336	1738.462280
890.152344	1701.706787
888.986328	1703.535400
887.819336	1619.666626
886.652344	1717.900513
885.484375	1717.583252
884.317383	1640.181763
883.149414	1684.836426
881.981445	1716.631714
880.813477	1643.553223
879.644531	1647.528931
878.475586	1717.819824
877.307617	1681.141968
876.137695	1657.308228
874.968750	1723.282104
873.798828	1686.623291
872.629883	1690.586060
871.459961	1788.570190
870.289062	1681.415283
869.119141	1689.648926
867.948242	1708.557861
866.777344	1671.941895
865.606445	1718.600830
864.435547	1758.838867
863.263672	1752.111328
862.092773	1655.769775
860.920898	1672.530273
859.748047	1676.486816
858.576172	1669.779175
857.403320	1697.188232
856.230469	1718.191895
855.057617	1683.772339
853.884766	1717.556274
852.710938	1689.541138
851.538086	1719.051025
850.364258	1725.122314
849.189453	1626.851318
848.015625	1615.905396
846.840820	1683.721558
845.666016	1711.076660
844.491211	1629.903076
843.316406	1718.953003
842.140625	1693.110596
840.965820	1680.037354
839.790039	1715.872314
838.613281	1628.395142
837.437500	1659.975464
836.260742	1727.669800
835.083984	1723.100586
833.907227	1733.402954
832.730469	1656.622437
831.552734	1603.228638
830.375977	1689.978271
829.198242	1655.702148
828.019531	1666.006958
826.841797	1689.039307
825.663086	1697.212524
824.484375	1677.807983
823.305664	1666.893433
822.126953	1645.381226
820.947266	1715.034546
819.767578	1691.401611
818.587891	1761.020386
817.408203	1635.686890
816.228516	1722.236938
815.047852	1671.086182
813.867188	1649.600586
812.686523	1687.404297
811.504883	1672.273804
810.324219	1720.641235
809.142578	1654.725708
807.960938	1677.690674
806.779297	1668.918701
805.596680	1717.250488
804.415039	1695.787476
803.232422	1678.560547
802.048828	1623.293945
800.866211	1696.957397
799.682617	1631.143311
798.500000	1666.752930
797.315430	1689.676758
796.131836	1691.474976
794.948242	1699.606323
793.763672	1747.842163
792.579102	1633.549194
791.394531	1690.219727
790.208984	1639.272217
789.024414	1776.075928
787.838867	1653.426392
786.653320	1701.616577
785.466797	1682.327148
784.281250	1719.954956
783.094727	1690.132080
781.908203	1738.279297
780.721680	1605.239868
779.534180	1706.040527
778.347656	1667.818604
777.160156	1684.352417
775.972656	1690.354736
774.784180	1559.551880
773.596680	1620.286011
772.408203	1645.231445
771.219727	1657.546753
770.031250	1655.135620
768.841797	1677.957886
767.653320	1652.418335
766.463867	1685.741943
765.274414	1645.499634
764.083984	1628.384644
762.894531	1594.469971
761.704102	1657.184448
760.513672	1686.275879
759.322266	1681.763306
758.131836	1639.466797
756.940430	1645.458374
755.749023	1609.479492
754.557617	1739.257324
753.365234	1709.567139
752.173828	1730.221558
750.981445	1671.188110
749.789062	1578.633057
748.595703	1572.051270
747.403320	1609.480957
746.209961	1720.231812
745.016602	1646.590332
743.823242	1707.024780
742.628906	1612.471802
741.435547	1677.077393
740.241211	1641.178467
739.046875	1655.523682
737.851562	1741.010620
736.657227	1623.524902
735.461914	1642.048828
734.266602	1704.484863
733.070312	1603.799438
731.875000	1641.131958
730.678711	1640.826416
729.482422	1692.766724
728.286133	1696.630371
727.089844	1658.711426
725.892578	1645.870483
724.695312	1639.299194
723.498047	1574.269287
722.300781	1630.338501
721.102539	1650.906006
719.904297	1677.725830
718.706055	1698.276611
717.507812	1716.733765
716.308594	1566.253662
715.110352	1659.794434
713.911133	1613.619995
712.711914	1625.825562
711.511719	1635.942627
710.311523	1650.223022
709.112305	1668.664429
707.912109	1701.678833
706.710938	1622.228516
705.510742	1624.008057
704.309570	1671.583862
703.108398	1654.621826
701.907227	1618.938110
700.705078	1599.911621
699.502930	1614.174072
698.301758	1586.836548
697.098633	1655.158936
695.896484	1694.350342
694.693359	1600.498657
693.491211	1652.154663
692.287109	1639.379639
691.083984	1576.751587
689.880859	1701.078491
688.676758	1667.535034
687.472656	1702.520020
686.268555	1623.319702
685.063477	1670.752563
683.858398	1660.065308
682.654297	1665.979492
681.448242	1622.108032
680.243164	1684.022827
679.037109	1615.281860
677.832031	1571.444214
676.625977	1670.643188
675.418945	1674.476074
674.212891	1626.507690
673.005859	1663.492676
671.798828	1648.683594
670.591797	1700.146240
669.383789	1602.518066
668.176758	1685.020752
666.968750	1649.521729
665.760742	1678.183350
664.551758	1650.974243
663.343750	1692.035889
662.134766	1606.926880
660.925781	1647.981201
659.715820	1622.865112
658.506836	1620.494873
657.296875	1696.655151
656.086914	1661.212769
654.876953	1642.310059
653.666016	1706.030884
652.456055	1668.541504
651.245117	1589.773193
650.034180	1614.246948
648.822266	1628.392212
647.611328	1584.754517
646.399414	1640.161743
645.187500	1646.043091
643.974609	1608.613403
642.762695	1668.108765
641.549805	1610.073242
640.336914	1607.710815
639.124023	1613.592407
637.910156	1609.169678
636.696289	1545.008301
635.483398	1627.104248
634.268555	1560.904053
633.054688	1572.965088
631.839844	1630.307739
630.625000	1652.641602
629.410156	1658.505371
628.195312	1656.137573
626.979492	1707.250732
625.764648	1651.404419
624.548828	1614.084351
623.332031	1613.782104
622.116211	1631.978516
620.899414	1623.452881
619.682617	1557.401001
618.465820	1672.146362
617.248047	1624.594727
616.031250	1624.290405
614.813477	1675.313110
613.595703	1633.945312
612.376953	1658.266968
611.159180	1584.086914
609.940430	1616.614746
608.721680	1655.283813
607.502930	1618.059692
606.283203	1650.562622
605.063477	1637.953247
603.843750	1641.745483
602.624023	1592.256104
601.403320	1634.983521
600.183594	1599.853027
598.962891	1656.899414
597.742188	1607.443970
596.520508	1680.845947
595.299805	1608.888184
594.078125	1592.213989
592.856445	1587.823120
591.633789	1636.624023
590.412109	1572.909790
589.189453	1601.244873
587.966797	1580.498169
586.743164	1664.015747
585.520508	1487.931396
584.296875	1638.869629
583.073242	1573.183105
581.849609	1619.870239
580.625000	1586.889038
579.401367	1645.807617
578.176758	1631.207764
576.952148	1575.789795
575.726562	1671.411377
574.500977	1577.238647
573.276367	1629.983276
572.049805	1684.747681
570.824219	1551.879272
569.598633	1614.793091
568.372070	1602.258911
567.145508	1597.881836
565.917969	1548.676147
564.691406	1578.945435
563.463867	1572.537964
562.236328	1564.096313
561.008789	1576.019653
559.780273	1602.189209
558.552734	1642.596924
557.324219	1615.832520
556.094727	1609.424927
554.866211	1590.813843
553.636719	1555.938477
552.407227	1596.316528
551.177734	1589.917114
549.948242	1557.094116
548.717773	1556.801392
547.488281	1617.468506
546.256836	1635.448975
545.026367	1598.579346
543.795898	1571.877686
542.564453	1654.831299
541.333008	1601.737915
540.100586	1575.050415
538.869141	1578.812866
537.636719	1615.036865
536.404297	1584.304688
535.171875	1506.935913
533.939453	1561.402832
532.706055	1634.096069
531.472656	1577.031616
530.239258	1578.761597
529.004883	1631.147461
527.771484	1588.296875
526.537109	1559.640869
525.302734	1549.221680
524.067383	1583.350708
522.833008	1629.613037
521.597656	1576.682739
520.362305	1501.512573
519.126953	1541.694336
517.890625	1541.404053
516.654297	1526.956543
515.417969	1567.110596
514.181641	1506.164551
512.944336	1598.861450
511.708008	1527.827515
510.470703	1549.765869
509.233398	1498.969604
507.995117	1557.261230
506.756836	1538.793091
505.518555	1605.131226
504.280273	1550.325195
503.041992	1590.398560
501.802734	1541.669434
500.563477	1513.133667
499.324219	1531.002686
498.084961	1548.864868
496.844727	1530.425659
495.604492	1560.376953
494.364258	1483.489624
493.124023	1527.544922
491.882812	1609.865845
490.642578	1549.128174
489.401367	1544.807861
488.159180	1592.845581
486.917969	1505.971924
485.675781	1533.869263
484.433594	1565.781006
483.191406	1571.522339
481.948242	1601.403076
480.705078	1607.135254
479.462891	1550.522461
478.218750	1610.550171
476.975586	1553.958008
475.731445	1521.506104
474.487305	1617.676758
473.243164	1545.041748
471.999023	1484.486816
470.753906	1572.576172
469.508789	1598.383545
468.263672	1571.982422
467.018555	1599.787354
465.772461	1589.450806
464.526367	1547.014160
463.280273	1568.789429
462.034180	1526.372559
460.787109	1542.127197
459.540039	1479.681274
458.292969	1595.669189
457.045898	1499.164673
455.797852	1552.985474
454.550781	1588.754639
453.302734	1548.392578
452.053711	1552.105347
450.805664	1555.816772
449.556641	1571.538452
448.307617	1615.276245
447.058594	1524.916870
445.808594	1538.634399
444.559570	1530.341797
443.309570	1578.054199
442.059570	1477.771362
440.808594	1511.480225
439.557617	1473.214722
438.307617	1452.950562
437.055664	1548.588379
435.804688	1504.343994
434.552734	1567.977051
433.300781	1519.751343
432.048828	1541.427246
430.796875	1555.109741
429.543945	1580.762451
428.291016	1536.561646
427.038086	1586.149780
425.785156	1573.880981
424.531250	1519.734375
423.278320	1481.560303
422.023438	1479.286255
420.769531	1530.831299
419.515625	1498.655273
418.260742	1524.274414
417.005859	1545.899414
415.750000	1623.285400
414.495117	1557.262451
413.239258	1582.850708
411.983398	1590.513428
410.727539	1562.348755
409.470703	1615.779541
408.214844	1611.494507
406.958008	1643.015259
405.700195	1612.872925
404.443359	1540.986084
403.185547	1582.442017
401.927734	1514.563354
400.669922	1593.765991
399.411133	1557.700439
398.153320	1507.743164
396.894531	1463.763062
395.635742	1614.401367
394.375977	1558.505371
393.116211	1536.375244
391.857422	1508.299561
390.596680	1521.903320
389.336914	1537.485596
388.076172	1553.061890
386.815430	1517.071655
385.554688	1552.473022
384.293945	1470.902344
383.032227	1506.298950
381.770508	1504.031738
380.508789	1466.103271
379.247070	1481.671875
377.984375	1487.332275
376.721680	1522.691772
375.458984	1492.707153
374.196289	1537.948853
372.932617	1490.161865
371.668945	1513.622192
370.405273	1521.247803
369.141602	1509.092163
367.876953	1534.512817
366.613281	1419.550293
365.347656	1462.768555
364.083008	1432.845825
362.818359	1483.948853
361.552734	1501.447510
360.287109	1475.484619
359.020508	1485.078613
357.754883	1474.924316
356.488281	1425.292114
355.221680	1513.838501
353.955078	1513.551025
352.687500	1521.155396
351.419922	1434.072510
350.152344	1469.299927
348.884766	1538.035156
347.616211	1472.684692
346.348633	1397.503418
345.080078	1456.359375
343.810547	1495.489380
342.541992	1479.445435
341.272461	1467.346802
340.002930	1508.421509
338.733398	1464.820190
337.462891	1470.447144
336.193359	1525.274292
334.922852	1475.791260
333.651367	1455.837158
332.380859	1469.329224
331.109375	1415.951660
329.837891	1429.445923
328.566406	1442.935059
327.293945	1487.866577
326.022461	1407.014282
324.750000	1418.535034
323.477539	1416.300903
322.204102	1472.986938
320.930664	1476.633911
319.657227	1427.272095
318.383789	1479.997803
317.110352	1450.278809
315.835938	1398.987793
314.561523	1477.191284
313.287109	1480.832764
312.011719	1472.706909
310.737305	1478.308472
309.461914	1468.225830
308.185547	1491.464844
306.910156	1518.613892
305.633789	1441.918701
304.357422	1518.035522
303.081055	1492.287476
301.804688	1535.079590
300.527344	1552.405884
299.250000	1534.494873
297.972656	1553.771484
296.694336	1545.649414
295.416992	1600.126953
294.138672	1564.618164
292.860352	1632.759155
291.581055	1653.953247
290.301758	1600.862427
289.022461	1508.706055
287.743164	1508.418579
286.463867	1455.385498
285.183594	1509.796753
283.903320	1419.680420
282.623047	1436.981567
281.342773	1464.036255
280.061523	1430.578613
278.780273	1426.403320
277.499023	1459.297119
276.216797	1439.513184
274.935547	1429.487793
273.653320	1460.412109
272.370117	1428.942505
271.087891	1442.313354
269.804688	1327.064941
268.521484	1385.261597
267.238281	1375.257568
265.955078	1371.099976
264.670898	1454.568481
263.386719	1409.513550
262.102539	1380.047485
260.817383	1381.730225
259.533203	1371.737793
258.248047	1352.022461
256.962891	1371.214233
255.676758	1378.730835
254.390625	1357.080933
253.104492	1356.821899
251.818359	1420.698242
250.532227	1420.427002
249.245117	1348.273682
247.958008	1456.789795
246.670898	1371.062866
245.382812	1442.641846
244.095703	1407.423340
242.807617	1360.572754
241.518555	1327.323853
240.230469	1398.856201
238.941406	1375.311401
237.652344	1312.987183
236.363281	1368.968628
235.074219	1409.419312
233.784180	1422.718018
232.494141	1364.307983
231.204102	1371.797485
229.913086	1429.651123
228.622070	1452.619751
227.331055	1413.612915
226.040039	1517.891235
224.749023	1562.122437
223.457031	1406.996094
222.165039	1451.231445
220.873047	1315.531494
219.580078	1398.451904
218.287109	1326.631470
216.994141	1303.175659
215.701172	1329.990112
214.407227	1343.265015
213.114258	1273.442139
211.820312	1298.314575
210.525391	1332.835815
209.231445	1328.718140
207.936523	1295.638428
206.641602	1276.085083
205.346680	1302.863159
204.050781	1341.209717
202.754883	1333.235229
201.458984	1325.263794
200.163086	1278.721436
198.866211	1293.903198
197.569336	1297.511353
196.272461	1270.276611
194.975586	1331.704224
193.677734	1323.741699
192.379883	1298.443970
191.082031	1313.604126
189.784180	1261.357544
188.485352	1259.190552
187.187500	1324.399292
185.887695	1301.049927
184.588867	1312.346191
183.289062	1319.790283
181.989258	1238.749268
180.689453	1240.435059
179.389648	1295.958130
178.088867	1270.718262
176.788086	1291.617188
175.487305	1270.231079
174.186523	1321.862915
172.884766	1262.060303
171.583008	1296.388550
170.281250	1298.060181
168.979492	1270.933472
167.676758	1316.757080
166.374023	1308.828125
165.071289	1322.008179
163.767578	1260.366821
162.463867	1240.945068
161.160156	1252.212769
159.856445	1271.145020
158.552734	1215.311157
157.248047	1299.405151
155.943359	1289.574951
154.638672	1291.243286
153.333008	1187.562622
152.027344	1267.766968
150.721680	1267.523560
149.416016	1240.479736
148.110352	1236.413696
146.803711	1199.818115
145.497070	1270.376831
144.189453	1191.706055
142.882812	1246.939209
141.575195	1275.381470
140.267578	1324.841919
138.959961	1276.802856
137.651367	1245.981445
136.342773	1270.580444
135.034180	1256.964355
133.725586	1258.632812
132.416016	1174.370850
131.106445	1197.055420
129.796875	1183.463623
128.487305	1177.510864
127.176758	1146.755249
125.866211	1146.534790
124.555664	1117.704224
123.244141	1128.931274
121.933594	1063.889404
120.622070	1029.372437
119.309570	1006.303955
117.998047	1006.110474
116.685547	889.703064
115.373047	819.055115
114.060547	807.471130
112.748047	618.815186
111.434570	544.452576
110.121094	414.922485
108.806641	346.336548
107.493164	273.971802
106.178711	197.830444
104.864258	165.460922
103.549805	129.300903
102.234375	81.748062
100.918945	53.221054
99.603516	41.808495
