#Wave		#Intensity
1998.943359	14205.397461
1997.975586	14081.400391
1997.007812	14197.755859
1996.039062	14326.982422
1995.071289	14329.649414
1994.102539	14451.061523
1993.133789	14063.970703
1992.165039	14404.735352
1991.196289	14208.714844
1990.227539	14260.411133
1989.257812	14242.449219
1988.288086	14435.952148
1987.318359	14185.916992
1986.348633	14131.885742
1985.378906	14289.221680
1984.409180	14142.418945
1983.438477	14062.657227
1982.467773	14140.062500
1981.497070	14284.407227
1980.526367	14397.797852
1979.555664	14338.642578
1978.584961	14343.864258
1977.613281	14192.080078
1976.641602	14194.750977
1975.669922	14138.243164
1974.698242	14305.559570
1973.726562	14207.898438
1972.753906	14470.291992
1971.782227	14164.373047
1970.809570	14241.592773
1969.836914	14187.702148
1968.863281	14118.412109
1967.890625	14097.961914
1966.917969	14169.999023
1965.944336	14013.419922
1964.970703	14249.796875
1963.997070	14157.445312
1963.023438	14244.821289
1962.048828	14239.768555
1961.075195	14044.816406
1960.100586	14068.022461
1959.125977	14163.046875
1958.151367	14193.916992
1957.176758	14058.088867
1956.201172	14173.576172
1955.226562	14235.188477
1954.250977	14268.584961
1953.275391	14250.716797
1952.299805	14102.184570
1951.323242	14220.122070
1950.347656	14117.748047
1949.371094	14148.572266
1948.394531	14276.679688
1947.417969	14128.269531
1946.441406	13961.993164
1945.464844	14023.529297
1944.487305	14210.415039
1943.509766	14220.722656
1942.532227	14225.910156
1941.554688	13926.783203
1940.577148	14026.621094
1939.599609	14080.409180
1938.621094	14307.979492
1937.642578	14032.043945
1936.664062	14180.336914
1935.685547	14208.512695
1934.707031	14177.933594
1933.727539	14259.725586
1932.749023	14055.527344
1931.769531	14224.105469
1930.790039	13966.384766
1929.810547	13910.352539
1928.830078	14043.146484
1927.850586	14237.117188
1926.870117	13928.561523
1925.889648	14298.440430
1924.909180	14069.019531
1923.928711	14043.615234
1922.948242	14053.902344
1921.966797	14140.634766
1920.985352	14217.145508
1920.003906	14026.148438
1919.022461	14186.701172
1918.041016	14130.741211
1917.059570	13876.205078
1916.077148	13771.951172
1915.094727	14181.863281
1914.112305	14024.151367
1913.129883	14103.114258
1912.147461	14093.014648
1911.164062	13963.376953
1910.180664	13915.159180
1909.197266	13966.116211
1908.213867	14116.196289
1907.230469	13900.226562
1906.247070	14306.925781
1905.262695	13974.123047
1904.278320	14027.562500
1903.294922	13951.450195
1902.309570	13918.534180
1901.325195	13771.375000
1900.340820	13809.580078
1899.355469	13992.440430
1898.370117	14142.248047
1897.384766	13931.720703
1896.399414	13967.332031
1895.414062	13881.187500
1894.427734	14023.298828
1893.442383	14157.754883
1892.456055	13676.165039
1891.469727	13861.323242
1890.482422	13924.780273
1889.496094	13836.196289
1888.508789	14155.487305
1887.522461	13849.077148
1886.535156	14028.975586
1885.547852	13968.284180
1884.559570	13877.235352
1883.572266	13920.360352
1882.583984	14115.301758
1881.595703	13968.612305
1880.607422	13991.459961
1879.619141	14188.813477
1878.630859	13756.437500
1877.641602	13766.666992
1876.653320	13696.000000
1875.664062	13908.429688
1874.674805	14022.231445
1873.684570	13898.499023
1872.695312	13928.900391
1871.705078	13976.970703
1870.715820	13775.027344
1869.725586	13886.225586
1868.735352	13914.081055
1867.744141	13931.831055
1866.753906	13989.950195
1865.762695	13861.345703
1864.771484	13894.228516
1863.780273	13904.401367
1862.789062	13947.351562
1861.797852	13667.569336
1860.805664	13914.728516
1859.813477	13743.422852
1858.821289	13940.083008
1857.829102	13945.194336
1856.836914	14020.836914
1855.844727	13922.669922
1854.851562	14023.468750
1853.858398	13812.039062
1852.865234	13902.751953
1851.872070	13948.129883
1850.878906	13772.051758
1849.884766	13852.659180
1848.890625	13973.485352
1847.897461	14026.362305
1846.903320	14172.259766
1845.908203	13822.817383
1844.914062	13908.370117
1843.918945	13790.316406
1842.923828	13908.509766
1841.929688	13923.653320
1840.933594	13991.541992
1839.938477	14009.175781
1838.943359	13830.940430
1837.947266	13846.083984
1836.951172	13928.997070
1835.955078	13715.731445
1834.958984	13690.738281
1833.961914	13828.828125
1832.965820	14059.680664
1831.968750	13831.491211
1830.971680	14082.321289
1829.974609	13653.639648
1828.977539	13869.319336
1827.979492	13994.698242
1826.982422	13912.052734
1825.984375	13902.090820
1824.986328	13806.965820
1823.988281	14027.434570
1822.989258	13882.239258
1821.991211	13832.230469
1820.992188	13842.313477
1819.993164	13904.949219
1818.994141	14072.656250
1817.995117	13937.584961
1816.995117	13722.517578
1815.996094	13835.146484
1814.996094	13882.722656
1813.996094	13750.277344
1812.996094	13787.852539
1811.996094	13755.436523
1810.995117	14110.334961
1809.994141	13910.487305
1808.993164	13950.502930
1807.992188	13738.265625
1806.991211	13803.266602
1805.990234	13853.264648
1804.988281	13681.091797
1803.986328	13980.658203
1802.984375	13658.809570
1801.982422	13855.987305
1800.980469	13836.087891
1799.977539	13816.194336
1798.975586	13903.527344
1797.972656	13756.483398
1796.969727	13955.960938
1795.966797	13833.880859
1794.962891	13823.969727
1793.959961	13789.148438
1792.956055	13799.174805
1791.952148	13754.407227
1790.948242	13859.052734
1789.943359	13869.059570
1788.939453	13717.272461
1787.934570	13575.492188
1786.929688	13844.314453
1785.924805	13764.754883
1784.919922	13647.913086
1783.915039	13871.814453
1782.909180	13722.669922
1781.903320	13518.885742
1780.897461	13675.580078
1779.891602	13628.437500
1778.885742	13571.373047
1777.879883	13795.047852
1776.873047	13723.069336
1775.866211	13613.865234
1774.859375	13661.124023
1773.852539	13450.186523
1772.844727	13596.739258
1771.837891	13629.084961
1770.830078	13768.109375
1769.822266	13520.087891
1768.814453	13788.057617
1767.806641	13681.471680
1766.797852	13535.251953
1765.789062	13597.318359
1764.781250	13552.785156
1763.772461	13530.569336
1762.762695	13810.639648
1761.753906	13634.795898
1760.744141	13570.470703
1759.735352	13550.742188
1758.725586	13533.495117
1757.714844	13508.828125
1756.705078	13558.420898
1755.695312	13486.739258
1754.684570	13684.769531
1753.673828	13407.767578
1752.663086	13630.473633
1751.652344	13553.880859
1750.640625	13645.442383
1749.629883	13605.954102
1748.618164	13517.046875
1747.606445	13541.843750
1746.594727	13470.273438
1745.583008	13724.802734
1744.570312	13608.767578
1743.557617	13473.017578
1742.545898	13534.832031
1741.533203	13473.197266
1740.519531	13451.073242
1739.506836	13391.942383
1738.493164	13549.946289
1737.479492	13392.145508
1736.465820	13725.203125
1735.452148	13579.756836
1734.438477	13569.960938
1733.423828	13417.197266
1732.410156	13459.189453
1731.395508	13313.889648
1730.380859	13321.392578
1729.366211	13397.864258
1728.350586	13649.171875
1727.334961	13548.262695
1726.320312	13540.944336
1725.304688	13560.706055
1724.288086	13317.119141
1723.272461	13627.272461
1722.256836	13496.930664
1721.240234	13310.059570
1720.223633	13492.160156
1719.207031	13253.715820
1718.190430	13153.032227
1717.172852	13465.340820
1716.155273	13603.045898
1715.138672	13354.919922
1714.121094	13578.581055
1713.102539	13465.645508
1712.084961	13568.867188
1711.066406	13252.167969
1710.048828	13399.581055
1709.030273	13281.844727
1708.011719	13335.941406
1706.992188	13255.063477
1705.973633	13608.446289
1704.954102	13095.843750
1703.934570	13495.724609
1702.915039	13390.353516
1701.895508	13566.948242
1700.875977	13444.442383
1699.855469	13216.599609
1698.834961	13464.187500
1697.814453	13282.966797
1696.793945	13312.458008
1695.773438	13410.509766
1694.751953	13293.054688
1693.730469	13471.860352
1692.709961	13295.692383
1691.687500	13344.730469
1690.666016	13305.666016
1689.644531	13207.902344
1688.622070	13450.156250
1687.599609	13286.372070
1686.577148	13372.041016
1685.554688	13244.997070
1684.532227	13298.868164
1683.508789	13408.925781
1682.485352	13211.084961
1681.461914	13453.034180
1680.438477	13379.820312
1679.415039	13431.174805
1678.391602	13448.328125
1677.367188	13209.152344
1676.342773	13194.608398
1675.318359	13209.352539
1674.293945	13153.334961
1673.268555	13211.990234
1672.244141	13453.549805
1671.218750	13309.727539
1670.193359	13190.338867
1669.167969	13317.199219
1668.141602	13297.777344
1667.116211	13246.683594
1666.089844	12990.949219
1665.063477	12952.106445
1664.037109	13149.525391
1663.010742	13173.979492
1661.983398	13125.384766
1660.957031	13191.216797
1659.929688	13393.318359
1658.902344	13257.107422
1657.875000	13227.994141
1656.846680	13196.457031
1655.819336	13019.005859
1654.791016	13269.589844
1653.762695	13084.893555
1652.734375	13264.882812
1651.705078	13167.745117
1650.676758	13182.418945
1649.647461	13175.220703
1648.618164	13078.149414
1647.588867	13151.117188
1646.559570	13027.373047
1645.529297	13032.343750
1644.500000	13233.928711
1643.469727	13095.672852
1642.439453	13253.497070
1641.409180	12896.939453
1640.377930	13105.680664
1639.347656	13025.748047
1638.316406	12979.789062
1637.285156	13040.517578
1636.253906	13103.648438
1635.222656	12875.938477
1634.190430	13074.764648
1633.158203	12890.747070
1632.125977	13176.698242
1631.093750	12854.686523
1630.061523	12944.414062
1629.029297	12963.903320
1627.996094	13039.055664
1626.962891	12898.796875
1625.929688	13046.521484
1624.896484	12949.855469
1623.863281	12945.136719
1622.829102	12913.817383
1621.794922	12899.432617
1620.760742	12788.355469
1619.726562	12986.696289
1618.692383	12781.394531
1617.657227	12735.631836
1616.622070	12740.616211
1615.587891	12897.761719
1614.551758	12740.916992
1613.516602	12649.317383
1612.481445	12666.380859
1611.445312	12919.970703
1610.409180	12985.242188
1609.373047	12669.278320
1608.336914	12671.850586
1607.300781	12773.307617
1606.263672	12631.172852
1605.226562	12727.778320
1604.189453	12665.250000
1603.152344	12865.451172
1602.115234	12696.891602
1601.077148	12774.140625
1600.039062	12569.522461
1599.000977	12733.469727
1597.962891	12581.907227
1596.924805	12909.508789
1595.885742	12567.801758
1594.847656	12830.306641
1593.808594	12835.243164
1592.769531	12659.735352
1591.730469	12717.619141
1590.690430	12825.987305
1589.651367	12756.375977
1588.611328	12968.076172
1587.571289	12698.953125
1586.531250	12925.006836
1585.490234	12785.742188
1584.450195	12958.844727
1583.409180	12670.697266
1582.368164	12764.504883
1581.327148	12867.883789
1580.285156	12719.147461
1579.244141	12716.882812
1578.202148	12642.621094
1577.160156	12604.377930
1576.118164	12834.839844
1575.076172	12693.434570
1574.033203	12719.951172
1572.991211	12643.355469
1571.948242	12715.419922
1570.905273	12598.104492
1569.862305	12768.405273
1568.818359	12660.705078
1567.775391	12838.120117
1566.731445	12675.355469
1565.687500	12720.992188
1564.643555	12694.781250
1563.598633	12709.276367
1562.554688	12795.570312
1561.509766	12714.319336
1560.464844	12989.597656
1559.419922	12575.823242
1558.374023	12726.655273
1557.329102	12628.732422
1556.283203	12621.699219
1555.237305	12674.430664
1554.191406	12815.575195
1553.145508	12806.121094
1552.098633	12672.430664
1551.052734	12579.396484
1550.005859	12651.192383
1548.958984	12792.212891
1547.912109	12680.105469
1546.864258	12522.682617
1545.816406	12732.862305
1544.769531	12833.199219
1543.721680	12680.603516
1542.672852	12666.414062
1541.625000	12707.083984
1540.576172	12614.204102
1539.528320	12743.080078
1538.479492	12531.041016
1537.430664	12893.444336
1536.380859	12793.446289
1535.332031	12548.157227
1534.282227	12912.744141
1533.232422	12607.980469
1532.182617	12650.971680
1531.132812	12522.536133
1530.082031	12525.060547
1529.031250	12591.840820
1527.981445	12858.468750
1526.929688	12761.012695
1525.878906	12663.590820
1524.828125	12639.925781
1523.776367	12544.936523
1522.724609	12357.265625
1521.672852	12528.571289
1520.621094	12493.063477
1519.569336	12640.522461
1518.516602	12614.507812
1517.463867	12571.876953
1516.411133	12526.884766
1515.358398	12629.118164
1514.305664	12498.669922
1513.251953	12555.774414
1512.198242	12406.400391
1511.144531	12411.300781
1510.090820	12689.004883
1509.037109	12534.942383
1507.982422	12535.073242
1506.927734	12433.252930
1505.873047	12371.767578
1504.818359	12457.250000
1503.763672	12514.264648
1502.708984	12573.627930
1501.653320	12381.874023
1500.597656	12329.923828
1499.541992	12446.118164
1498.486328	12384.703125
1497.429688	12512.681641
1496.373047	12491.509766
1495.317383	12432.484375
1494.260742	12406.602539
1493.203125	12534.482422
1492.146484	12345.404297
1491.088867	12454.332031
1490.031250	12355.172852
1488.973633	12456.967773
1487.916016	12471.282227
1486.858398	12270.566406
1485.799805	12374.682617
1484.741211	12207.124023
1483.682617	12162.429688
1482.624023	12339.706055
1481.565430	12351.662109
1480.505859	12380.135742
1479.446289	12370.839844
1478.386719	12253.008789
1477.327148	12172.964844
1476.267578	12151.916992
1475.207031	12366.701172
1474.147461	12178.217773
1473.086914	12437.709961
1472.026367	12275.207031
1470.964844	12235.303711
1469.904297	12320.290039
1468.842773	12362.842773
1467.781250	12271.126953
1466.719727	12339.575195
1465.658203	12353.846680
1464.595703	12099.751953
1463.533203	12217.618164
1462.471680	12048.352539
1461.409180	12293.235352
1460.345703	12156.948242
1459.283203	12173.585938
1458.219727	12119.670898
1457.156250	12190.382812
1456.092773	12105.924805
1455.029297	12155.460938
1453.965820	12038.140625
1452.901367	12139.356445
1451.836914	12179.462891
1450.772461	12184.325195
1449.708008	12158.659180
1448.642578	12177.608398
1447.578125	12158.994141
1446.512695	12199.057617
1445.447266	12164.020508
1444.381836	12023.422852
1443.315430	11922.750977
1442.250000	12035.527344
1441.183594	11963.025391
1440.117188	12136.706055
1439.050781	12033.740234
1437.983398	11769.108398
1436.916992	12165.322266
1435.849609	12074.118164
1434.782227	11992.315430
1433.714844	11966.746094
1432.647461	12172.984375
1431.579102	12063.114258
1430.510742	11883.066406
1429.442383	12084.526367
1428.374023	12002.806641
1427.305664	11984.277344
1426.236328	11977.448242
1425.167969	12075.852539
1424.098633	12066.670898
1423.028320	11823.728516
1421.958984	12022.606445
1420.889648	12102.235352
1419.819336	12018.289062
1418.749023	11950.724609
1417.678711	12063.019531
1416.608398	11848.358398
1415.537109	11995.650391
1414.465820	11909.462891
1413.395508	11977.338867
1412.323242	11956.520508
1411.251953	11949.706055
1410.180664	11961.555664
1409.108398	11856.790039
1408.036133	11742.736328
1406.963867	12032.043945
1405.891602	12060.183594
1404.818359	11845.940430
1403.746094	11757.598633
1402.672852	11857.991211
1401.599609	11830.238281
1400.525391	11818.796875
1399.452148	11921.451172
1398.377930	11767.988281
1397.303711	11975.354492
1396.229492	11852.189453
1395.155273	12126.940430
1394.081055	11992.160156
1393.005859	12062.106445
1391.930664	11839.016602
1390.855469	11964.766602
1389.780273	11950.991211
1388.704102	11535.129883
1387.628906	11925.779297
1386.552734	11853.932617
1385.476562	11779.788086
1384.400391	11875.215820
1383.323242	11789.483398
1382.247070	11650.380859
1381.169922	11827.024414
1380.092773	11822.576172
1379.014648	11716.027344
1377.937500	11635.038086
1376.859375	11751.245117
1375.782227	11637.807617
1374.704102	11723.828125
1373.625000	11814.453125
1372.546875	11534.170898
1371.467773	11680.416992
1370.388672	11585.629883
1369.309570	11632.195312
1368.230469	11630.100586
1367.151367	11704.430664
1366.071289	11598.127930
1364.991211	11642.339844
1363.911133	11614.782227
1362.831055	11665.917969
1361.750977	11506.478516
1360.669922	11809.771484
1359.588867	11715.125977
1358.507812	11743.079102
1357.426758	11639.230469
1356.345703	11521.547852
1355.263672	11681.262695
1354.181641	11760.039062
1353.099609	11621.602539
1352.017578	11584.858398
1350.935547	11425.715820
1349.852539	11679.979492
1348.769531	11654.786133
1347.686523	11567.275391
1346.603516	11609.041992
1345.520508	11636.947266
1344.436523	11549.486328
1343.352539	11462.055664
1342.268555	11365.431641
1341.184570	11460.229492
1340.100586	11850.091797
1339.015625	11559.824219
1337.930664	11486.295898
1336.845703	11601.739258
1335.760742	11502.887695
1334.675781	11493.903320
1333.589844	11521.768555
1332.503906	11480.546875
1331.417969	11545.238281
1330.332031	11457.991211
1329.246094	11628.522461
1328.159180	11403.237305
1327.072266	11460.993164
1325.985352	11341.621094
1324.898438	11337.275391
1323.811523	11503.073242
1322.723633	11167.668945
1321.635742	11517.309570
1320.547852	11292.325195
1319.459961	11352.321289
1318.371094	11426.079102
1317.283203	11449.280273
1316.194336	11362.249023
1315.105469	11249.994141
1314.016602	11218.121094
1312.926758	11507.572266
1311.837891	11356.339844
1310.748047	11459.825195
1309.658203	11262.779297
1308.568359	11407.524414
1307.477539	11290.813477
1306.387695	11362.137695
1305.296875	11227.137695
1304.206055	11429.078125
1303.114258	11376.603516
1302.023438	11305.819336
1300.931641	11427.465820
1299.840820	11230.741211
1298.748047	11597.353516
1297.656250	11384.643555
1296.564453	11185.742188
1295.471680	11353.067383
1294.378906	11234.325195
1293.286133	11195.692383
1292.193359	11067.871094
1291.099609	11148.195312
1290.006836	11207.913086
1288.913086	11292.753906
1287.819336	11290.712891
1286.725586	11162.987305
1285.630859	11403.151367
1284.536133	11234.333984
1283.442383	11273.412109
1282.346680	11093.260742
1281.251953	11312.713867
1280.157227	11070.986328
1279.061523	11253.847656
1277.965820	11308.858398
1276.870117	11176.770508
1275.774414	11115.441406
1274.677734	11133.956055
1273.581055	11280.154297
1272.485352	11150.445312
1271.387695	11077.767578
1270.291016	11253.521484
1269.194336	11025.908203
1268.096680	10966.958984
1266.999023	11028.750977
1265.901367	10910.611328
1264.803711	11013.374023
1263.705078	11289.112305
1262.606445	11013.939453
1261.507812	11007.393555
1260.409180	10928.041992
1259.310547	10882.841797
1258.210938	11056.001953
1257.111328	10997.149414
1256.011719	10854.194336
1254.912109	10968.161133
1253.812500	10963.901367
1252.711914	11114.165039
1251.612305	11178.038086
1250.511719	10842.095703
1249.410156	10910.537109
1248.309570	11085.676758
1247.208008	10904.313477
1246.107422	10913.687500
1245.005859	10886.745117
1243.903320	11238.749023
1242.801758	11102.860352
1241.699219	10887.631836
1240.597656	11175.943359
1239.495117	10999.325195
1238.391602	11099.346680
1237.289062	10936.405273
1236.185547	10904.961914
1235.082031	10780.632812
1233.978516	11007.481445
1232.875000	10812.962891
1231.771484	10931.024414
1230.666992	10951.683594
1229.562500	10865.938477
1228.458008	10768.908203
1227.353516	10877.837891
1226.248047	10918.852539
1225.143555	10950.803711
1224.038086	10910.368164
1222.931641	10912.911133
1221.826172	11001.366211
1220.720703	10811.752930
1219.614258	10714.869141
1218.507812	10864.320312
1217.401367	10776.498047
1216.294922	10885.224609
1215.187500	10655.150391
1214.080078	10779.664062
1212.972656	10937.996094
1211.865234	10800.580078
1210.757812	10913.713867
1209.649414	10823.735352
1208.541016	10848.840820
1207.432617	10774.694336
1206.324219	10887.749023
1205.215820	10793.329102
1204.106445	10649.347656
1202.997070	10733.061523
1201.887695	10746.886719
1200.778320	10720.151367
1199.668945	10758.751953
1198.558594	10882.923828
1197.448242	10802.132812
1196.337891	10818.181641
1195.227539	10856.734375
1194.117188	10715.223633
1193.005859	10562.511719
1191.894531	10691.082031
1190.783203	10774.616211
1189.671875	10725.428711
1188.559570	10858.394531
1187.447266	10595.632812
1186.334961	10737.564453
1185.222656	10834.496094
1184.110352	10751.636719
1182.998047	10673.299805
1181.884766	10770.188477
1180.771484	10716.579102
1179.658203	10734.837891
1178.543945	10820.437500
1177.430664	10454.861328
1176.316406	10908.509766
1175.202148	10780.879883
1174.087891	10698.161133
1172.972656	10855.458984
1171.858398	10629.238281
1170.743164	10699.050781
1169.627930	10766.594727
1168.512695	10654.815430
1167.396484	10755.955078
1166.281250	10520.994141
1165.165039	10810.281250
1164.048828	10664.979492
1162.931641	10701.104492
1161.815430	10667.814453
1160.698242	10677.064453
1159.581055	10925.773438
1158.463867	10691.078125
1157.346680	10539.243164
1156.228516	10561.928711
1155.111328	10765.749023
1153.993164	10596.093750
1152.875000	10562.867188
1151.755859	10505.065430
1150.637695	10708.746094
1149.518555	10697.858398
1148.399414	10398.801758
1147.280273	10546.551758
1146.160156	10602.690430
1145.041016	10506.986328
1143.920898	10514.001953
1142.800781	10454.057617
1141.680664	10501.245117
1140.559570	10385.547852
1139.439453	10459.498047
1138.318359	10395.145508
1137.197266	10422.238281
1136.075195	10538.499023
1134.954102	10411.752930
1133.832031	10329.625000
1132.709961	10405.729492
1131.587891	10377.099609
1130.465820	10593.492188
1129.342773	10460.168945
1128.220703	10427.088867
1127.097656	10483.068359
1125.974609	10329.804688
1124.850586	10505.950195
1123.727539	10312.687500
1122.603516	10422.035156
1121.479492	10288.909180
1120.355469	10533.868164
1119.230469	10238.465820
1118.106445	10338.853516
1116.981445	10481.431641
1115.856445	10259.529297
1114.730469	10484.272461
1113.605469	10302.433594
1112.479492	10453.795898
1111.353516	10218.735352
1110.227539	10287.914062
1109.101562	10155.074219
1107.974609	10361.833984
1106.848633	10264.530273
1105.721680	10326.993164
1104.594727	10349.505859
1103.466797	10442.976562
1102.339844	10239.299805
1101.211914	10303.935547
1100.083984	10428.391602
1098.956055	10326.765625
1097.827148	10262.841797
1096.699219	10322.994141
1095.570312	10248.019531
1094.441406	10279.364258
1093.311523	10352.762695
1092.182617	10182.636719
1091.052734	10187.416992
1089.922852	10238.663086
1088.792969	10396.084961
1087.663086	10148.654297
1086.532227	10376.805664
1085.402344	10198.013672
1084.271484	10118.772461
1083.139648	10196.497070
1082.008789	10296.292969
1080.876953	10303.249023
1079.746094	10179.861328
1078.614258	10295.065430
1077.481445	10385.934570
1076.349609	10158.824219
1075.216797	10075.287109
1074.083984	10091.102539
1072.951172	10252.556641
1071.818359	10169.046875
1070.685547	10356.898438
1069.551758	10205.027344
1068.417969	10064.237305
1067.284180	10300.507812
1066.149414	10338.301758
1065.015625	10250.457031
1063.880859	10129.591797
1062.746094	10094.691406
1061.611328	10022.358398
1060.476562	10159.269531
1059.340820	10199.247070
1058.205078	10217.194336
1057.069336	10199.916992
1055.933594	10110.022461
1054.796875	10266.592773
1053.661133	10007.326172
1052.524414	10174.855469
1051.387695	10192.784180
1050.250000	10153.541016
1049.113281	10024.181641
1047.975586	10121.250977
1046.837891	10038.090820
1045.700195	10093.376953
1044.561523	10166.214844
1043.423828	10217.063477
1042.285156	10274.481445
1041.146484	9978.406250
1040.007812	9985.359375
1038.868164	10187.633789
1037.728516	10027.780273
1036.589844	10258.492188
1035.449219	9973.657227
1034.309570	10302.981445
1033.169922	10092.791016
1032.029297	9976.944336
1030.888672	10163.615234
1029.748047	10056.563477
1028.606445	9914.493164
1027.465820	10066.020508
1026.324219	9961.234375
1025.182617	10165.252930
1024.041016	9839.352539
1022.898438	10095.855469
1021.756836	9892.649414
1020.614258	9947.729492
1019.471680	10013.728516
1018.328125	10027.204102
1017.185547	10034.113281
1016.041992	10062.885742
1014.898438	9947.356445
1013.754883	10015.478516
1012.610352	9915.296875
1011.466797	9952.808594
1010.322266	9985.936523
1009.177734	9824.656250
1008.033203	9855.610352
1006.887695	9976.074219
1005.742188	9972.060547
1004.597656	10040.074219
1003.451172	9983.676758
1002.305664	10110.571289
1001.160156	9982.193359
1000.013672	9866.948242
998.867188	9801.898438
997.720703	10138.033203
996.573242	9974.865234
995.426758	9846.627930
994.279297	10036.573242
993.131836	9908.371094
991.983398	9843.382812
990.835938	9848.108398
989.687500	9955.170898
988.539062	9792.243164
987.390625	10125.643555
986.242188	9832.169922
985.092773	9906.517578
983.944336	9824.207031
982.794922	9802.827148
981.644531	9827.121094
980.495117	9794.876953
979.344727	9753.948242
978.194336	9834.746094
977.043945	9954.627930
975.893555	9796.369141
974.742188	9970.518555
973.591797	9768.877930
972.440430	9869.139648
971.289062	9876.008789
970.136719	9780.856445
968.985352	9818.122070
967.833008	9762.071289
966.680664	9862.239258
965.528320	9875.609375
964.375000	9862.950195
963.221680	9726.705078
962.069336	9907.014648
960.915039	9820.662109
959.761719	9886.034180
958.608398	9899.381836
957.454102	9765.419922
956.299805	9737.633789
955.145508	9798.639648
953.990234	9721.059570
952.834961	9699.789062
951.680664	9726.139648
950.525391	9880.147461
949.369141	9774.482422
948.213867	9822.433594
947.057617	9781.698242
945.901367	9758.275391
944.745117	9994.283203
943.588867	9685.515625
942.431641	9597.290039
941.274414	9614.968750
940.117188	9902.673828
938.959961	9723.741211
937.801758	9730.587891
936.644531	9661.865234
935.486328	9679.513672
934.328125	9686.363281
933.168945	9816.209961
932.010742	9551.188477
930.851562	9743.567383
929.692383	9666.288086
928.533203	9707.632812
927.373047	9488.098633
926.213867	9484.194336
925.053711	9654.854492
923.893555	9609.981445
922.732422	9567.278320
921.572266	9599.977539
920.411133	9675.734375
919.250000	9749.309570
918.088867	9510.713867
916.926758	9663.927734
915.765625	9565.308594
914.603516	9694.788086
913.441406	9613.409180
912.279297	9626.691406
911.116211	9590.510742
909.953125	9554.342773
908.790039	9576.225586
907.626953	9460.553711
906.463867	9542.610352
905.299805	9560.185547
904.135742	9536.941406
902.971680	9552.362305
901.807617	9621.457031
900.643555	9533.810547
899.478516	9592.149414
898.313477	9616.130859
897.148438	9496.349609
895.982422	9567.533203
894.817383	9555.042969
893.651367	9531.835938
892.485352	9536.507812
891.319336	9596.912109
890.152344	9397.964844
888.986328	9417.658203
887.819336	9563.746094
886.652344	9444.168945
885.484375	9575.205078
884.317383	9406.420898
883.149414	9319.050781
881.981445	9490.705078
880.813477	9388.369141
879.644531	9416.590820
878.475586	9577.433594
877.307617	9263.391602
876.137695	9280.925781
874.968750	9512.260742
873.798828	9360.866211
872.629883	9534.392578
871.459961	9427.923828
870.289062	9584.281250
869.119141	9366.764648
867.948242	9467.546875
866.777344	9470.067383
865.606445	9280.444336
864.435547	9406.799805
863.263672	9253.538086
862.092773	9529.210938
860.920898	9397.316406
859.748047	9344.387695
858.576172	9427.960938
857.403320	9439.010742
856.230469	9334.940430
855.057617	9437.650391
853.884766	9284.606445
852.710938	9425.636719
851.538086	9266.260742
850.364258	9392.333008
849.189453	9441.700195
848.015625	9390.986328
846.840820	9378.605469
845.666016	9257.690430
844.491211	9634.727539
843.316406	9518.063477
842.140625	9446.110352
840.965820	9559.200195
839.790039	9417.098633
838.613281	9413.229492
837.437500	9364.726562
836.260742	9494.746094
835.083984	9403.752930
833.907227	9336.159180
832.730469	9279.208984
831.552734	9532.308594
830.375977	9237.556641
829.198242	9320.753906
828.019531	9493.056641
826.841797	9588.905273
825.663086	9432.258789
824.484375	9430.510742
823.305664	9505.110352
822.126953	9401.572266
820.947266	9537.626953
819.767578	9368.415039
818.587891	9546.807617
817.408203	9371.298828
816.228516	9306.010742
815.047852	9336.055664
813.867188	9431.734375
812.686523	9396.110352
811.504883	9385.901367
810.324219	9303.737305
809.142578	9172.935547
807.960938	9359.525391
806.779297	9340.868164
805.596680	9366.628906
804.415039	9367.005859
803.232422	9386.409180
802.048828	9435.396484
800.866211	9448.438477
799.682617	9296.671875
798.500000	9428.033203
797.315430	9346.024414
796.131836	9369.630859
794.948242	9513.573242
793.763672	9416.816406
792.579102	9379.189453
791.394531	9364.788086
790.208984	9206.928711
789.024414	9255.844727
787.838867	9363.792969
786.653320	9364.163086
785.466797	9362.424805
784.281250	9230.002930
783.094727	9396.880859
781.908203	9428.848633
780.721680	9229.076172
779.534180	9195.768555
778.347656	9139.309570
777.160156	9348.156250
775.972656	9270.637695
774.784180	9256.288086
773.596680	9298.757812
772.408203	9343.315430
771.219727	9486.720703
770.031250	9356.668945
768.841797	9197.227539
767.653320	9210.235352
766.463867	9349.352539
765.274414	9290.873047
764.083984	9289.146484
762.894531	9484.890625
761.704102	9275.191406
760.513672	9168.468750
759.322266	9257.046875
758.131836	9234.333984
756.940430	9138.170898
755.749023	9270.769531
754.557617	9111.694336
753.365234	9204.393555
752.173828	9206.875977
750.981445	9110.805664
749.789062	9245.380859
748.595703	9153.530273
747.403320	9151.827148
746.209961	9376.416016
745.016602	9119.093750
743.823242	9199.083008
742.628906	9222.500977
741.435547	9310.815430
740.241211	9365.602539
739.046875	9223.631836
737.851562	9309.802734
736.657227	9128.143555
735.461914	9170.372070
734.266602	9193.761719
733.070312	9298.691406
731.875000	9179.885742
730.678711	9163.544922
729.482422	9105.413086
728.286133	9231.173828
727.089844	9085.309570
725.892578	9167.165039
724.695312	9317.901367
723.498047	9190.892578
722.300781	9026.355469
721.102539	9243.821289
719.904297	9123.156250
718.706055	9169.441406
717.507812	9201.108398
716.308594	9209.822266
715.110352	9247.723633
713.911133	9043.777344
712.711914	9227.602539
711.511719	9086.254883
710.311523	9261.667969
709.112305	9189.112305
707.912109	9081.174805
706.710938	9169.027344
705.510742	9048.639648
704.309570	9223.895508
703.108398	9001.559570
701.907227	9045.660156
700.705078	9189.609375
699.502930	9266.940430
698.301758	9142.507812
697.098633	9263.483398
695.896484	9103.754883
694.693359	9097.899414
693.491211	9123.218750
692.287109	9167.228516
691.083984	9144.744141
689.880859	9192.885742
688.676758	9232.703125
687.472656	9287.039062
686.268555	9277.001953
685.063477	9159.044922
683.858398	9005.854492
682.654297	9076.787109
681.448242	9129.025391
680.243164	9139.764648
679.037109	9040.602539
677.832031	9088.669922
676.625977	9101.482422
675.418945	9224.125000
674.212891	9081.506836
673.005859	9050.808594
671.798828	9073.972656
670.591797	9101.269531
669.383789	9122.344727
668.176758	8957.106445
666.968750	9112.727539
665.760742	9055.154297
664.551758	9072.083008
663.343750	9089.003906
662.134766	9101.783203
660.925781	9151.775391
659.715820	8976.408203
658.506836	9034.671875
657.296875	8925.521484
656.086914	9118.075195
654.876953	9188.673828
653.666016	9054.769531
652.456055	9022.100586
651.245117	9038.996094
650.034180	9140.518555
648.822266	9145.000977
647.611328	9015.354492
646.399414	8900.198242
645.187500	8898.534180
643.974609	8987.612305
642.762695	9097.275391
641.549805	8856.433594
640.336914	8955.773438
639.124023	8877.849609
637.910156	8913.275391
636.696289	8874.527344
635.483398	9027.338867
634.268555	8883.561523
633.054688	8966.312500
631.839844	8987.277344
630.625000	9037.047852
629.410156	9012.721680
628.195312	8869.079102
626.979492	9003.176758
625.764648	8894.550781
624.548828	8755.123047
623.332031	8882.997070
622.116211	8936.829102
620.899414	8939.265625
619.682617	8865.679688
618.465820	8968.785156
617.248047	8911.651367
616.031250	9018.815430
614.813477	9027.391602
613.595703	8982.593750
612.376953	8855.719727
611.159180	8901.254883
609.940430	8989.855469
608.721680	8836.384766
607.502930	8816.272461
606.283203	8908.937500
605.063477	8714.567383
603.843750	8889.201172
602.624023	9014.587891
601.403320	8826.452148
600.183594	8884.203125
598.962891	8878.441406
597.742188	8770.295898
596.520508	8938.579102
595.299805	8916.433594
594.078125	8990.483398
592.856445	8855.796875
591.633789	8854.135742
590.412109	8654.071289
589.189453	8781.284180
587.966797	8957.519531
586.743164	8827.051758
585.520508	8792.693359
584.296875	8848.261719
583.073242	8775.092773
581.849609	8945.034180
580.625000	8782.011719
579.401367	8706.853516
578.176758	8858.335938
576.952148	8730.120117
575.726562	8812.154297
574.500977	8879.874023
573.276367	8784.365234
572.049805	8796.994141
570.824219	8840.206055
569.598633	8712.134766
568.372070	9006.081055
567.145508	8924.903320
565.917969	8817.265625
564.691406	9033.605469
563.463867	8826.174805
562.236328	8738.980469
561.008789	8798.424805
559.780273	8747.912109
558.552734	8813.438477
557.324219	8677.468750
556.094727	8777.571289
554.866211	8751.510742
553.636719	8629.865234
552.407227	8703.483398
551.177734	8689.649414
549.948242	8757.129883
548.717773	8810.357422
547.488281	8678.653320
546.256836	8701.401367
545.026367	8646.953125
543.795898	8694.067383
542.564453	8627.458008
541.333008	8640.045898
540.100586	8628.272461
538.869141	8663.177734
537.636719	8513.435547
536.404297	8625.433594
535.171875	8644.092773
533.939453	8567.437500
532.706055	8438.098633
531.472656	8708.133789
530.239258	8568.682617
529.004883	8696.751953
527.771484	8545.199219
526.537109	8669.172852
525.302734	8614.887695
524.067383	8520.127930
522.833008	8421.354492
521.597656	8446.081055
520.362305	8588.166016
519.126953	8596.666016
517.890625	8491.881836
516.654297	8680.394531
515.417969	8610.008789
514.181641	8422.391602
512.944336	8505.700195
511.708008	8544.517578
510.470703	8593.421875
509.233398	8533.217773
507.995117	8507.373047
506.756836	8433.071289
505.518555	8473.881836
504.280273	8464.210938
503.041992	8535.273438
501.802734	8398.465820
500.563477	8628.897461
499.324219	8574.825195
498.084961	8538.924805
496.844727	8531.265625
495.604492	8543.769531
494.364258	8634.876953
493.124023	8536.517578
491.882812	8440.209961
490.642578	8466.821289
489.401367	8497.450195
488.159180	8538.135742
486.917969	8550.619141
485.675781	8488.617188
484.433594	8553.431641
483.191406	8521.634766
481.948242	8455.649414
480.705078	8514.397461
479.462891	8406.205078
478.218750	8430.757812
476.975586	8417.104492
475.731445	8473.803711
474.487305	8578.709961
473.243164	8472.615234
471.999023	8555.384766
470.753906	8399.123047
469.508789	8453.761719
468.263672	8504.365234
467.018555	8432.504883
465.772461	8282.403320
464.526367	8441.360352
463.280273	8473.870117
462.034180	8442.183594
460.787109	8464.654297
459.540039	8408.920898
458.292969	8453.438477
457.045898	8457.854492
455.797852	8440.225586
454.550781	8408.579102
453.302734	8463.077148
452.053711	8489.515625
450.805664	8375.781250
449.556641	8430.252930
448.307617	8304.561523
447.058594	8262.967773
445.808594	8489.500000
444.559570	8417.879883
443.309570	8168.280273
442.059570	8332.710938
440.808594	8245.165039
439.557617	8475.482422
438.307617	8393.937500
437.055664	8094.621582
435.804688	8248.918945
434.552734	8311.276367
433.300781	8347.648438
432.048828	8376.019531
430.796875	8278.613281
429.543945	8171.264160
428.291016	8215.615234
427.038086	8226.032227
425.785156	8098.804688
424.531250	8364.522461
423.278320	8059.847656
422.023438	8289.585938
420.769531	8116.595215
419.515625	8001.464355
418.260742	8191.231445
417.005859	8237.492188
415.750000	8156.262207
414.495117	8262.252930
413.239258	8340.329102
411.983398	8187.461914
410.727539	8229.697266
409.470703	8210.229492
408.214844	8156.947754
406.958008	8165.348633
405.700195	8173.745605
404.443359	8146.348633
403.185547	8208.420898
401.927734	8266.495117
400.669922	8143.707031
399.411133	8169.979980
398.153320	8237.958984
396.894531	8220.508789
395.635742	8209.022461
394.375977	8118.125488
393.116211	8253.550781
391.857422	8174.586914
390.596680	8214.706055
389.336914	8240.922852
388.076172	8487.294922
386.815430	8485.685547
385.554688	8470.197266
384.293945	8708.456055
383.032227	8623.561523
381.770508	8661.557617
380.508789	8380.563477
379.247070	8529.517578
377.984375	8216.965820
376.721680	8393.616211
375.458984	8237.605469
374.196289	8497.316406
372.932617	8521.430664
371.668945	8492.113281
370.405273	8482.588867
369.141602	8585.804688
367.876953	8572.310547
366.613281	8481.713867
365.347656	8578.940430
364.083008	9025.940430
362.818359	9263.318359
361.552734	9648.775391
360.287109	9976.804688
359.020508	10324.456055
357.754883	10429.117188
356.488281	10837.747070
355.221680	11354.775391
353.955078	11230.272461
352.687500	10788.167969
351.419922	9939.877930
350.152344	9121.493164
348.884766	8735.250977
347.616211	8589.674805
346.348633	8386.991211
345.080078	8387.368164
343.810547	8484.291992
342.541992	8128.085449
341.272461	8211.233398
340.002930	7967.458496
338.733398	8005.320801
337.462891	8054.979492
336.193359	7962.916016
334.922852	7922.047363
333.651367	7953.986328
332.380859	8113.765625
331.109375	8074.857422
329.837891	7933.719727
328.566406	8099.308594
327.293945	7922.840332
326.022461	7813.252930
324.750000	7913.932617
323.477539	7922.249023
322.204102	8060.184570
320.930664	7984.033691
319.657227	8068.896973
318.383789	8169.430664
317.110352	8289.550781
315.835938	8531.275391
314.561523	8859.223633
313.287109	9394.952148
312.011719	9685.352539
310.737305	9983.483398
309.461914	9426.833008
308.185547	8937.029297
306.910156	8604.171875
305.633789	8206.790039
304.357422	8336.463867
303.081055	8135.121094
301.804688	8002.385254
300.527344	7983.242188
299.250000	7958.234863
297.972656	8052.606445
296.694336	8352.375977
295.416992	8622.689453
294.138672	8799.021484
292.860352	8885.337891
291.581055	8639.266602
290.301758	8297.510742
289.022461	8153.266602
287.743164	8032.523926
286.463867	7765.312012
285.183594	7754.065918
283.903320	7678.381836
282.623047	7715.966309
281.342773	7802.337402
280.061523	7654.474121
278.780273	7680.333008
277.499023	7653.505859
276.216797	7611.084961
274.935547	7636.936035
273.653320	7569.185547
272.370117	7637.921875
271.087891	7609.177734
269.804688	7603.828613
268.521484	7545.876465
267.238281	7497.686035
265.955078	7502.098145
264.670898	7549.346680
263.386719	7421.361328
262.102539	7523.107910
260.817383	7681.252441
259.533203	7648.654785
258.248047	7516.855957
256.962891	7801.333496
255.676758	7836.791992
254.390625	7765.302734
253.104492	7623.861328
251.818359	7669.049805
250.532227	7731.708496
249.245117	7561.211914
247.958008	7520.920410
246.670898	7457.339355
245.382812	7428.731934
244.095703	7334.131348
242.807617	7387.075684
241.518555	7226.541016
240.230469	7436.637695
238.941406	7392.541504
237.652344	7263.126953
236.363281	7253.982910
235.074219	7332.082031
233.784180	7322.927734
232.494141	7304.086426
231.204102	7178.686035
229.913086	7276.110352
228.622070	7150.762695
227.331055	7265.583008
226.040039	7188.686035
224.749023	7241.511719
223.457031	7158.842285
222.165039	7109.098633
220.873047	7206.403809
219.580078	7036.747070
218.287109	7050.872070
216.994141	7010.853516
215.701172	7113.900879
214.407227	7052.624512
213.114258	7022.289062
211.820312	7005.489258
210.525391	7139.363770
209.231445	7163.104004
207.936523	7181.042480
206.641602	7198.973145
205.346680	7228.478027
204.050781	7358.320312
202.754883	7636.678711
201.458984	7272.553711
200.163086	7024.289062
198.866211	6943.882812
197.569336	7004.247559
196.272461	6960.499512
194.975586	6899.422363
193.677734	6805.612793
192.379883	6842.838379
191.082031	6831.896973
189.784180	6874.880371
188.485352	6917.846680
187.187500	6879.946289
185.887695	7005.653320
184.588867	6771.475586
183.289062	6847.133301
181.989258	6986.238281
180.689453	7025.285645
179.389648	6954.718750
178.088867	6903.402832
176.788086	6855.950195
175.487305	6862.322266
174.186523	6774.547852
172.884766	6894.268066
171.583008	6712.412109
170.281250	6824.416992
168.979492	6705.998047
167.676758	6645.208496
166.374023	6837.763184
165.071289	6746.270996
163.767578	6754.568359
162.463867	6724.502930
161.160156	6728.965332
159.856445	6852.296387
158.552734	6875.901367
157.248047	7104.564941
155.943359	7277.571777
154.638672	7347.059570
153.333008	7113.882812
152.027344	6639.498535
150.721680	6774.166992
149.416016	6581.434570
148.110352	6608.879883
146.803711	6693.722656
145.497070	6680.958008
144.189453	6754.275879
142.882812	6550.255859
141.575195	6621.658203
140.267578	6819.208008
138.959961	6831.277832
137.651367	6996.223633
136.342773	6941.381836
135.034180	6666.877930
133.725586	6512.803711
132.416016	6410.346680
131.106445	6449.207520
129.796875	6297.171875
128.487305	6131.835449
127.176758	6004.723633
125.866211	6091.324219
124.555664	5802.144043
123.244141	5873.493652
121.933594	5590.186035
120.622070	5478.548828
119.309570	5467.966309
117.998047	5295.418457
116.685547	4972.430664
115.373047	4630.518555
114.060547	4197.326172
112.748047	3610.072510
111.434570	3165.820557
110.121094	2607.540527
108.806641	2224.546143
107.493164	1748.472778
106.178711	1354.377686
104.864258	1099.269165
103.549805	749.184631
102.234375	543.719666
100.918945	406.760895
99.603516	250.850952
