#Wave		#Intensity
1998.943359	9767.340820
1997.975586	9658.843750
1997.007812	9734.644531
1996.039062	9738.113281
1995.071289	9661.540039
1994.102539	9685.670898
1993.133789	9758.832031
1992.165039	9700.358398
1991.196289	9794.131836
1990.227539	9862.075195
1989.257812	9927.415039
1988.288086	9701.331055
1987.318359	9823.399414
1986.348633	9705.682617
1985.378906	9771.002930
1984.409180	9712.605469
1983.438477	9744.406250
1982.467773	9866.358398
1981.497070	9844.032227
1980.526367	9713.556641
1979.555664	9925.564453
1978.584961	9833.733398
1977.613281	9767.671875
1976.641602	9879.196289
1975.669922	9959.806641
1974.698242	9873.176758
1973.726562	9768.573242
1972.753906	9941.736328
1971.782227	9842.297852
1970.809570	9940.836914
1969.836914	10052.193359
1968.863281	9891.111328
1967.890625	9976.743164
1966.917969	9869.676758
1965.944336	9752.374023
1964.970703	9879.071289
1963.997070	10036.535156
1963.023438	9849.951172
1962.048828	10056.130859
1961.075195	10038.977539
1960.100586	10034.659180
1959.125977	9920.033203
1958.151367	9982.421875
1957.176758	10021.709961
1956.201172	9812.278320
1955.226562	10133.567383
1954.250977	10077.973633
1953.275391	9989.083984
1952.299805	9833.608398
1951.323242	9901.057617
1950.347656	10083.739258
1949.371094	9992.348633
1948.394531	10141.666016
1947.417969	9894.140625
1946.441406	9902.649414
1945.464844	9908.595703
1944.487305	9991.297852
1943.509766	9825.831055
1942.532227	10005.709961
1941.554688	10103.694336
1940.577148	9945.963867
1939.599609	9844.527344
1938.621094	9855.585938
1937.642578	9902.416992
1936.664062	10099.976562
1935.685547	9978.146484
1934.707031	10101.553711
1933.727539	9880.171875
1932.749023	10054.617188
1931.769531	10042.647461
1930.790039	10040.891602
1929.810547	10003.409180
1928.830078	10042.482422
1927.850586	9877.462891
1926.870117	9862.982422
1925.889648	10052.514648
1924.909180	10002.313477
1923.928711	9857.807617
1922.948242	10205.263672
1921.966797	10198.381836
1920.985352	10066.656250
1920.003906	9884.027344
1919.022461	9991.818359
1918.041016	10193.792969
1917.059570	10189.462891
1916.077148	9986.573242
1915.094727	10068.817383
1914.112305	9975.444336
1913.129883	10133.990234
1912.147461	9989.759766
1911.164062	9952.403320
1910.180664	9978.633789
1909.197266	10126.895508
1908.213867	10041.234375
1907.230469	10067.434570
1906.247070	10162.237305
1905.262695	9931.790039
1904.278320	10168.839844
1903.294922	10093.403320
1902.309570	10193.211914
1901.325195	9907.062500
1900.340820	10080.485352
1899.355469	9865.521484
1898.370117	10107.406250
1897.384766	10143.693359
1896.399414	10139.379883
1895.414062	10190.866211
1894.427734	10090.181641
1893.442383	10068.130859
1892.456055	10111.996094
1891.469727	10077.275391
1890.482422	10141.396484
1889.496094	10159.887695
1888.508789	10049.180664
1887.522461	10191.786133
1886.535156	10121.626953
1885.547852	10170.490234
1884.559570	10054.793945
1883.572266	10179.580078
1882.583984	10079.105469
1881.595703	10138.060547
1880.607422	10022.449219
1879.619141	10129.447266
1878.630859	10135.257812
1877.641602	9941.328125
1876.653320	10101.369141
1875.664062	10152.673828
1874.674805	10037.178711
1873.684570	10060.683594
1872.695312	10036.184570
1871.705078	10246.579102
1870.715820	10045.290039
1869.725586	10109.171875
1868.735352	10059.436523
1867.744141	10249.486328
1866.753906	9972.633789
1865.762695	10210.568359
1864.771484	10123.010742
1863.780273	9929.553711
1862.789062	10008.504883
1861.797852	10150.458008
1860.805664	10201.613281
1859.813477	10149.416016
1858.821289	10150.154297
1857.829102	10085.386719
1856.836914	10048.349609
1855.844727	10054.141602
1854.851562	10221.091797
1853.858398	10196.637695
1852.865234	10021.158203
1851.872070	10341.549805
1850.878906	10083.064453
1849.884766	10222.185547
1848.890625	10011.605469
1847.897461	10107.934570
1846.903320	10279.666016
1845.908203	10169.751953
1844.914062	10175.506836
1843.918945	10178.746094
1842.923828	10176.958008
1841.929688	10396.260742
1840.933594	10150.775391
1839.938477	10236.894531
1838.943359	10202.452148
1837.947266	9997.299805
1836.951172	10286.723633
1835.955078	10084.137695
1834.958984	10232.922852
1833.961914	10130.770508
1832.965820	10101.397461
1831.968750	10157.305664
1830.971680	10155.520508
1829.974609	10173.791992
1828.977539	10292.323242
1827.979492	10004.805664
1826.982422	10158.404297
1825.984375	10221.756836
1824.986328	10002.034180
1823.988281	10160.560547
1822.989258	10278.966797
1821.991211	10332.237305
1820.992188	10250.320312
1819.993164	10278.549805
1818.994141	10124.105469
1817.995117	10124.826172
1816.995117	10133.050781
1815.996094	10101.257812
1814.996094	10257.011719
1813.996094	10397.709961
1812.996094	10210.909180
1811.996094	10099.149414
1810.995117	10199.820312
1809.994141	10300.456055
1808.993164	10206.222656
1807.992188	10361.763672
1806.991211	10030.339844
1805.990234	10208.325195
1804.988281	10341.317383
1803.986328	10219.706055
1802.984375	10387.582031
1801.982422	10305.920898
1800.980469	10171.906250
1799.977539	10170.116211
1798.975586	10367.801758
1797.972656	10301.158203
1796.969727	10428.958984
1795.966797	10255.165039
1794.962891	10186.083008
1793.959961	10221.658203
1792.956055	10339.417969
1791.952148	10272.846680
1790.948242	10360.675781
1789.943359	10356.361328
1788.939453	10147.944336
1787.934570	10233.258789
1786.929688	10288.684570
1785.924805	10286.872070
1784.919922	10257.699219
1783.915039	10191.232422
1782.909180	10097.438477
1781.903320	10476.017578
1780.897461	10188.332031
1779.891602	10238.723633
1778.885742	10112.685547
1777.879883	10120.839844
1776.873047	10330.180664
1775.866211	10353.193359
1774.859375	10271.914062
1773.852539	10292.446289
1772.844727	10280.703125
1771.837891	10172.180664
1770.830078	10356.476562
1769.822266	10272.786133
1768.814453	10283.375977
1767.806641	10165.008789
1766.797852	10297.105469
1765.789062	10406.844727
1764.781250	10201.767578
1763.772461	10123.145508
1762.762695	10141.181641
1761.753906	10191.415039
1760.744141	10251.538086
1759.735352	10259.634766
1758.725586	10166.214844
1757.714844	10312.952148
1756.705078	10296.282227
1755.695312	10356.331055
1754.684570	10193.680664
1753.673828	10112.721680
1752.663086	10219.763672
1751.652344	10403.425781
1750.640625	10404.062500
1749.629883	10407.169922
1748.618164	10207.607422
1747.606445	10168.738281
1746.594727	10288.007812
1745.583008	10182.440430
1744.570312	10304.133789
1743.557617	10309.722656
1742.545898	10169.640625
1741.533203	10288.802734
1740.519531	10356.092773
1739.506836	10346.860352
1738.493164	10451.124023
1737.479492	10108.862305
1736.465820	10390.706055
1735.452148	10265.576172
1734.438477	10359.916016
1733.423828	10192.928711
1732.410156	10087.614258
1731.395508	10347.034180
1730.380859	10288.540039
1729.366211	10193.117188
1728.350586	10211.018555
1727.334961	10216.601562
1726.320312	10323.124023
1725.304688	10464.069336
1724.288086	10171.808594
1723.272461	10078.964844
1722.256836	10281.384766
1721.240234	10274.647461
1720.223633	10260.534180
1719.207031	10229.212891
1718.190430	10212.653320
1717.172852	10237.886719
1716.155273	10366.332031
1715.138672	10421.014648
1714.121094	10370.036133
1713.102539	10265.036133
1712.084961	10410.575195
1711.066406	10364.536133
1710.048828	10330.787109
1709.030273	10247.958008
1708.011719	10393.395508
1706.992188	10141.276367
1705.973633	10404.438477
1704.954102	10255.425781
1703.934570	10123.632812
1702.915039	10347.425781
1701.895508	10245.081055
1700.875977	10302.094727
1699.855469	10322.328125
1698.834961	10386.658203
1697.814453	10382.371094
1696.793945	10495.654297
1695.773438	10457.062500
1694.751953	10442.968750
1693.730469	10171.830078
1692.709961	10390.319336
1691.687500	10224.515625
1690.666016	10349.938477
1689.644531	10206.216797
1688.622070	10463.678711
1687.599609	10390.906250
1686.577148	10357.280273
1685.554688	10335.889648
1684.532227	10451.379883
1683.508789	10312.678711
1682.485352	10318.181641
1681.461914	10189.324219
1680.438477	10470.844727
1679.415039	10339.562500
1678.391602	10523.291992
1677.367188	10589.780273
1676.342773	10373.120117
1675.318359	10273.669922
1674.293945	10320.646484
1673.268555	10474.942383
1672.244141	10302.355469
1671.218750	10190.793945
1670.193359	10269.446289
1669.167969	10479.707031
1668.141602	10178.064453
1667.116211	10203.065430
1666.089844	10313.332031
1665.063477	10323.683594
1664.037109	10204.947266
1663.010742	10234.793945
1661.983398	10510.534180
1660.957031	10167.875000
1659.929688	10431.358398
1658.902344	10473.309570
1657.875000	10293.845703
1656.846680	10257.964844
1655.819336	10397.207031
1654.791016	10431.837891
1653.762695	10541.824219
1652.734375	10292.012695
1651.705078	10168.668945
1650.676758	10439.017578
1649.647461	10463.890625
1648.618164	10389.161133
1647.588867	10195.455078
1646.559570	10261.635742
1645.529297	10138.425781
1644.500000	10359.943359
1643.469727	10156.669922
1642.439453	10499.428711
1641.409180	10415.079102
1640.377930	10422.933594
1639.347656	10299.823242
1638.316406	10336.791016
1637.285156	10429.504883
1636.253906	10289.491211
1635.222656	10302.205078
1634.190430	10368.220703
1633.158203	10456.016602
1632.125977	10371.805664
1631.093750	10277.936523
1630.061523	10433.498047
1629.029297	10225.868164
1627.996094	10354.757812
1626.962891	10212.555664
1625.929688	10324.463867
1624.896484	10433.911133
1623.863281	10279.676758
1622.829102	10234.321289
1621.794922	10363.068359
1620.760742	10182.334961
1619.726562	10224.032227
1618.692383	10236.714844
1617.657227	10133.416992
1616.622070	10220.998047
1615.587891	10071.847656
1614.551758	10103.866211
1613.516602	10220.377930
1612.481445	10257.185547
1611.445312	10257.776367
1610.409180	10185.970703
1609.373047	10205.874023
1608.336914	10331.912109
1607.300781	10204.657227
1606.263672	10062.978516
1605.226562	10249.249023
1604.189453	10423.399414
1603.152344	10185.349609
1602.115234	10260.649414
1601.077148	10140.768555
1600.039062	10514.750000
1599.000977	10211.823242
1597.962891	10303.919922
1596.924805	10229.858398
1595.885742	10187.117188
1594.847656	10115.508789
1593.808594	10128.147461
1592.769531	10179.274414
1591.730469	10333.817383
1590.690430	10276.663086
1589.651367	10255.596680
1588.611328	10260.984375
1587.571289	10242.332031
1586.531250	10120.342773
1585.490234	10089.707031
1584.450195	10174.399414
1583.409180	10174.990234
1582.368164	10293.258789
1581.327148	10219.390625
1580.285156	10253.582031
1579.244141	10131.740234
1578.202148	10374.724609
1577.160156	10080.142578
1576.118164	10227.087891
1575.076172	10242.056641
1574.033203	10129.916016
1572.991211	10180.862305
1571.948242	10198.227539
1570.905273	10309.065430
1569.862305	10225.748047
1568.818359	10341.333008
1567.775391	10341.885742
1566.731445	10114.895508
1565.687500	10304.673828
1564.643555	10216.641602
1563.598633	10439.848633
1562.554688	10224.967773
1561.509766	10160.925781
1560.464844	10211.752930
1559.419922	10262.560547
1558.374023	10277.473633
1557.329102	10194.335938
1556.283203	10135.135742
1555.237305	10173.967773
1554.191406	10317.948242
1553.145508	10129.715820
1552.098633	10390.723633
1551.052734	10231.210938
1550.005859	10076.530273
1548.958984	10265.768555
1547.912109	10137.399414
1546.864258	10216.751953
1545.816406	10253.116211
1544.769531	10141.520508
1543.721680	10103.923828
1542.672852	10400.294922
1541.625000	10162.328125
1540.576172	10174.822266
1539.528320	10330.358398
1538.479492	10197.412109
1537.430664	10321.905273
1536.380859	10119.904297
1535.332031	10151.452148
1534.282227	10116.292969
1533.232422	10185.933594
1532.182617	10248.406250
1531.132812	10165.632812
1530.082031	10354.240234
1529.031250	10197.701172
1527.981445	10136.394531
1526.929688	10313.010742
1525.878906	9966.274414
1524.828125	10197.554688
1523.776367	10179.088867
1522.724609	10193.912109
1521.672852	10004.317383
1520.621094	10204.530273
1519.569336	10214.587891
1518.516602	10101.109375
1517.463867	10187.186523
1516.411133	10166.368164
1515.358398	10176.423828
1514.305664	10146.119141
1513.251953	10156.173828
1512.198242	10128.254883
1511.144531	10135.935547
1510.090820	10169.707031
1509.037109	10186.864258
1507.982422	10128.130859
1506.927734	9924.790039
1505.873047	10288.076172
1504.818359	10084.779297
1503.763672	10026.103516
1502.708984	10164.097656
1501.653320	10136.222656
1500.597656	10167.568359
1499.541992	10161.014648
1498.486328	10194.710938
1497.429688	10093.467773
1496.373047	10049.062500
1495.317383	10153.748047
1494.260742	9898.784180
1493.203125	9967.977539
1492.146484	10141.206055
1491.088867	10120.474609
1490.031250	10095.022461
1488.973633	9908.843750
1487.916016	10167.037109
1486.858398	10089.605469
1485.799805	10078.349609
1484.741211	10308.028320
1483.682617	10062.934570
1482.624023	10245.308594
1481.565430	10085.301758
1480.505859	10142.505859
1479.446289	10043.932617
1478.386719	10077.527344
1477.327148	9922.381836
1476.267578	10135.246094
1475.207031	9970.710938
1474.147461	9945.347656
1473.086914	10047.292969
1472.026367	9838.079102
1470.964844	10050.764648
1469.904297	10074.882812
1468.842773	10023.608398
1467.781250	9995.904297
1466.719727	10111.858398
1465.658203	10027.640625
1464.595703	9966.994141
1463.533203	9967.561523
1462.471680	9951.657227
1461.409180	10041.631836
1460.345703	10011.604492
1459.283203	9809.896484
1458.219727	9810.490234
1457.156250	9879.264648
1456.092773	9948.014648
1455.029297	9786.415039
1453.965820	9970.296875
1452.901367	9804.051758
1451.836914	9858.669922
1450.772461	10007.210938
1449.708008	9718.943359
1448.642578	9914.409180
1447.578125	9783.530273
1446.512695	9784.123047
1445.447266	9993.549805
1444.381836	9822.843750
1443.315430	9968.855469
1442.250000	9969.413086
1441.183594	9857.420898
1440.117188	9801.732422
1439.050781	10013.271484
1437.983398	9723.223633
1436.916992	9651.186523
1435.849609	9843.897461
1434.782227	10055.275391
1433.714844	9901.252930
1432.647461	9869.038086
1431.579102	9874.290039
1430.510742	9804.641602
1429.442383	9905.848633
1428.374023	9784.744141
1427.305664	9876.560547
1426.236328	9874.788086
1425.167969	9812.214844
1424.098633	9915.666016
1423.028320	9750.251953
1421.958984	9870.036133
1420.889648	9793.487305
1419.819336	9985.647461
1418.749023	9745.586914
1417.678711	9865.285156
1416.608398	9884.529297
1415.537109	9658.623047
1414.465820	9855.301758
1413.395508	9704.165039
1412.323242	9975.433594
1411.251953	9705.345703
1410.180664	9647.619141
1409.108398	9841.789062
1408.036133	10003.244141
1406.963867	9812.608398
1405.891602	9771.219727
1404.818359	9729.844727
1403.746094	9898.192383
1402.672852	9975.622070
1401.599609	9922.585938
1400.525391	9930.118164
1399.452148	9879.436523
1398.377930	9682.109375
1397.303711	9750.196289
1396.229492	9653.030273
1395.155273	9700.156250
1394.081055	9721.674805
1393.005859	9668.757812
1391.930664	9771.666016
1390.855469	9825.709961
1389.780273	9703.061523
1388.704102	9661.804688
1387.628906	9718.162109
1386.552734	9656.005859
1385.476562	9749.510742
1384.400391	9671.113281
1383.323242	9945.707031
1382.247070	9869.623047
1381.169922	9772.673828
1380.092773	9673.438477
1379.014648	9722.748047
1377.937500	9695.478516
1376.859375	9733.166992
1375.782227	9770.841797
1374.704102	9660.100586
1373.625000	9642.132812
1372.546875	9614.899414
1371.467773	9708.188477
1370.388672	9734.246094
1369.309570	9653.725586
1368.230469	9758.537109
1367.151367	9728.989258
1366.071289	9731.868164
1364.991211	9662.980469
1363.911133	9707.532227
1362.831055	9805.294922
1361.750977	9884.511719
1360.669922	9649.081055
1359.588867	9730.609375
1358.507812	9687.230469
1357.426758	9821.901367
1356.345703	9764.650391
1355.263672	9668.128906
1354.181641	9608.615234
1353.099609	9657.713867
1352.017578	9836.156250
1350.935547	9728.141602
1349.852539	9827.993164
1348.769531	9676.150391
1347.686523	9699.798828
1346.603516	9914.999023
1345.520508	9920.134766
1344.436523	9883.739258
1343.352539	9764.315430
1342.268555	9792.537109
1341.184570	9530.207031
1340.100586	9733.674805
1339.015625	9775.715820
1337.930664	9702.508789
1336.845703	9666.196289
1335.760742	9798.073242
1334.675781	9777.878906
1333.589844	9702.420898
1332.503906	9831.916016
1331.417969	9846.257812
1330.332031	9918.136719
1329.246094	9647.093750
1328.159180	9857.036133
1327.072266	9710.327148
1325.985352	9782.177734
1324.898438	9803.408203
1323.811523	9912.002930
1322.723633	9804.468750
1321.635742	9814.190430
1320.547852	9941.107422
1319.459961	9950.800781
1318.371094	9613.619141
1317.283203	9738.204102
1316.194336	9796.151367
1315.105469	9780.607422
1314.016602	9753.590820
1312.926758	9822.977539
1311.837891	9908.401367
1310.748047	9509.705078
1309.658203	9751.134766
1308.568359	9705.798828
1307.477539	9754.492188
1306.387695	9690.830078
1305.296875	9636.359375
1304.206055	9733.165039
1303.114258	9612.255859
1302.023438	9791.503906
1300.931641	9734.762695
1299.840820	9758.194336
1298.748047	9607.600586
1297.656250	9672.253906
1296.564453	9597.261719
1295.471680	9368.969727
1294.378906	9438.206055
1293.286133	9500.553711
1292.193359	9750.430664
1291.099609	9648.048828
1290.006836	9541.130859
1288.913086	9633.130859
1287.819336	9601.676758
1286.725586	9625.077148
1285.630859	9543.371094
1284.536133	9509.665039
1283.442383	9489.673828
1282.346680	9535.911133
1281.251953	9369.803711
1280.157227	9475.394531
1279.061523	9615.181641
1277.965820	9618.005859
1276.870117	9509.038086
1275.774414	9635.055664
1274.677734	9594.541992
1273.581055	9253.055664
1272.485352	9524.956055
1271.387695	9525.511719
1270.291016	9553.415039
1269.194336	9353.452148
1268.096680	9408.712891
1266.999023	9470.786133
1265.901367	9505.508789
1264.803711	9358.066406
1263.705078	9326.778320
1262.606445	9425.237305
1261.507812	9330.228516
1260.409180	9333.089844
1259.310547	9463.339844
1258.210938	9372.923828
1257.111328	9298.458008
1256.011719	9267.216797
1254.912109	9354.193359
1253.812500	9325.225586
1252.711914	9364.439453
1251.612305	9458.165039
1250.511719	9170.237305
1249.410156	9359.351562
1248.309570	9371.280273
1247.208008	9174.334961
1246.107422	9320.215820
1245.005859	9118.812500
1243.903320	9387.180664
1242.801758	9256.165039
1241.699219	9279.438477
1240.597656	9397.952148
1239.495117	9169.504883
1238.391602	9383.209961
1237.289062	9279.511719
1236.185547	9234.771484
1235.082031	9298.805664
1233.978516	9331.100586
1232.875000	9329.408203
1231.771484	9223.546875
1230.666992	9187.912109
1229.562500	9324.333984
1228.458008	9275.113281
1227.353516	9336.791992
1226.248047	9283.061523
1225.143555	9206.727539
1224.038086	9082.926758
1222.931641	9201.126953
1221.826172	9147.457031
1220.720703	9317.592773
1219.614258	9370.142578
1218.507812	9119.882812
1217.401367	9183.745117
1216.294922	9215.960938
1215.187500	9092.333984
1214.080078	9131.328125
1212.972656	9143.215820
1211.865234	9227.329102
1210.757812	9135.383789
1209.649414	9332.284180
1208.541016	9010.246094
1207.432617	9324.384766
1206.324219	9085.903320
1205.215820	9136.112305
1204.106445	9220.117188
1202.997070	9150.825195
1201.887695	9291.132812
1200.778320	9133.983398
1199.668945	9100.787109
1198.558594	9184.719727
1197.448242	9270.873047
1196.337891	9156.617188
1195.227539	9294.517578
1194.117188	9252.317383
1193.005859	9189.880859
1191.894531	9170.211914
1190.783203	9213.534180
1189.671875	9065.674805
1188.559570	9198.942383
1187.447266	9179.285156
1186.334961	9132.661133
1185.222656	9299.552734
1184.110352	8983.290039
1182.998047	9165.873047
1181.884766	9114.791016
1180.771484	9171.523438
1179.658203	9131.685547
1178.543945	9064.921875
1177.430664	9231.611328
1176.316406	9209.735352
1175.202148	9223.766602
1174.087891	9069.545898
1172.972656	9157.611328
1171.858398	9131.278320
1170.743164	9120.648438
1169.627930	9302.803711
1168.512695	9079.229492
1167.396484	9330.791016
1166.281250	9246.197266
1165.165039	9103.394531
1164.048828	9139.811523
1162.931641	9086.646484
1161.815430	9264.095703
1160.698242	8991.565430
1159.581055	9184.632812
1158.463867	9169.535156
1157.346680	9094.040039
1156.228516	9099.094727
1155.111328	9133.219727
1153.993164	9080.129883
1152.875000	9154.484375
1151.755859	9315.981445
1150.637695	9122.099609
1149.518555	8861.258789
1148.399414	9076.333008
1147.280273	9175.187500
1146.160156	9135.553711
1145.041016	8990.998047
1143.920898	8882.210938
1142.800781	9025.664062
1141.680664	9095.425781
1140.559570	9020.144531
1139.439453	9040.807617
1138.318359	9074.843750
1137.197266	8950.548828
1136.075195	8995.735352
1134.954102	8951.745117
1133.832031	8742.852539
1132.709961	9026.468750
1131.587891	9042.646484
1130.465820	8991.995117
1129.342773	8669.668945
1128.220703	9077.779297
1127.097656	9109.517578
1125.974609	8927.568359
1124.850586	9021.631836
1123.727539	9060.035156
1122.603516	9029.463867
1121.479492	8914.385742
1120.355469	8926.102539
1119.230469	8828.870117
1118.106445	8789.469727
1116.981445	9052.347656
1115.856445	8950.700195
1114.730469	8875.750977
1113.605469	8994.082031
1112.479492	9019.091797
1111.353516	8979.697266
1110.227539	8875.934570
1109.101562	9000.836914
1107.974609	8963.685547
1106.848633	8915.453125
1105.721680	8907.169922
1104.594727	8934.378906
1103.466797	9068.025391
1102.339844	8986.548828
1101.211914	8993.775391
1100.083984	8830.332031
1098.956055	8835.368164
1097.827148	8884.713867
1096.699219	8916.320312
1095.570312	9018.789062
1094.441406	8957.351562
1093.311523	8814.018555
1092.182617	8996.138672
1091.052734	9021.053711
1089.922852	8935.319336
1088.792969	8869.526367
1087.663086	9011.686523
1086.532227	8968.019531
1085.402344	8818.230469
1084.271484	8858.624023
1083.139648	8790.693359
1082.008789	8904.005859
1080.876953	8763.175781
1079.746094	8803.547852
1078.614258	8801.938477
1077.481445	8762.787109
1076.349609	8692.738281
1075.216797	8770.621094
1074.083984	8978.697266
1072.951172	8822.583008
1071.818359	9059.254883
1070.685547	9002.449219
1069.551758	8881.704102
1068.417969	9058.695312
1067.284180	8878.455078
1066.149414	9006.886719
1065.015625	8908.266602
1063.880859	8974.946289
1062.746094	9004.147461
1061.611328	8861.526367
1060.476562	8941.390625
1059.340820	8904.524414
1058.205078	8852.259766
1057.069336	8855.041992
1055.933594	8868.826172
1054.796875	8752.788086
1053.661133	8693.988281
1052.524414	8927.742188
1051.387695	8849.140625
1050.250000	8854.116211
1049.113281	8922.839844
1047.975586	9092.641602
1046.837891	8961.325195
1045.700195	8832.253906
1044.561523	9100.827148
1043.423828	9002.524414
1042.285156	9029.421875
1041.146484	8858.717773
1040.007812	8810.998047
1038.868164	9142.973633
1037.728516	8809.964844
1036.589844	8830.289062
1035.449219	8749.707031
1034.309570	8877.494141
1033.169922	8823.244141
1032.029297	8738.321289
1030.888672	8879.190430
1029.748047	8927.966797
1028.606445	8919.756836
1027.465820	8874.308594
1026.324219	9010.667969
1025.182617	8713.386719
1024.041016	8854.103516
1022.898438	8861.236328
1021.756836	8793.952148
1020.614258	8912.693359
1019.471680	8744.783203
1018.328125	8830.676758
1017.185547	8719.706055
1016.041992	8768.399414
1014.898438	8661.851562
1013.754883	8896.333008
1012.610352	8870.661133
1011.466797	8871.218750
1010.322266	8849.929688
1009.177734	8808.990234
1008.033203	8805.190430
1006.887695	8748.988281
1005.742188	8760.481445
1004.597656	8730.500000
1003.451172	8624.150391
1002.305664	8657.476562
1001.160156	8712.605469
1000.013672	8769.893555
998.867188	8792.270508
997.720703	8821.179688
996.573242	8845.717773
995.426758	8826.658203
994.279297	8692.117188
993.131836	8797.273438
991.983398	8821.796875
990.835938	8709.107422
989.687500	8864.283203
988.539062	8742.918945
987.390625	8878.439453
986.242188	8820.227539
985.092773	8638.013672
983.944336	8636.426758
982.794922	8834.942383
981.644531	8842.017578
980.495117	8614.273438
979.344727	8827.899414
978.194336	8611.107422
977.043945	8779.021484
975.893555	8781.752930
974.742188	8867.028320
973.591797	8741.603516
972.440430	8720.454102
971.289062	8692.798828
970.136719	8569.645508
968.985352	8620.155273
967.833008	8724.891602
966.680664	8812.234375
965.528320	8713.007812
964.375000	8592.129883
963.221680	8759.671875
962.069336	8762.396484
960.915039	8697.929688
959.761719	8691.995117
958.608398	8631.897461
957.454102	8948.747070
956.299805	8648.213867
955.145508	8809.031250
953.990234	8696.993164
952.834961	8749.508789
951.680664	8572.594727
950.525391	8664.062500
949.369141	8649.487305
948.213867	8756.047852
947.057617	8780.387695
945.901367	8627.413086
944.745117	8695.004883
943.588867	8715.018555
942.431641	8760.957031
941.274414	8569.206055
940.117188	8721.006836
938.959961	8574.689453
937.801758	8687.562500
936.644531	8821.984375
935.486328	8557.000977
934.328125	8738.878906
933.168945	8581.901367
932.010742	8688.194336
930.851562	8703.850586
929.692383	8540.495117
928.533203	8717.893555
927.373047	8800.367188
926.213867	8561.640625
925.053711	8592.389648
923.893555	8676.994141
922.732422	8610.765625
921.572266	8650.103516
920.411133	8616.206055
919.250000	8855.766602
918.088867	8546.294922
916.926758	8910.614258
915.765625	8577.575195
914.603516	8634.084961
913.441406	8724.991211
912.279297	8547.022461
911.116211	8691.668945
909.953125	8655.666992
908.790039	8596.032227
907.626953	8663.219727
906.463867	8745.422852
905.299805	8518.232422
904.135742	8639.094727
902.971680	8517.237305
901.807617	8689.585938
900.643555	8469.011719
899.478516	8430.960938
898.313477	8549.580078
897.148438	8586.622070
895.982422	8394.116211
894.817383	8604.901367
893.651367	8616.178711
892.485352	8560.988281
891.319336	8510.105469
890.152344	8536.395508
888.986328	8573.390625
887.819336	8548.240234
886.652344	8675.183594
885.484375	8425.152344
884.317383	8515.669922
883.149414	8526.941406
881.981445	8536.069336
880.813477	8545.192383
879.644531	8522.217773
878.475586	8462.883789
877.307617	8585.374023
876.137695	8570.957031
874.968750	8586.477539
873.798828	8676.810547
872.629883	8506.362305
871.459961	8556.075195
870.289062	8716.867188
869.119141	8552.913086
867.948242	8636.759766
866.777344	8336.221680
865.606445	8469.179688
864.435547	8621.298828
863.263672	8459.645508
862.092773	8618.111328
860.920898	8588.784180
859.748047	8561.600586
858.576172	8666.644531
857.403320	8630.926758
856.230469	8527.006836
855.057617	8568.056641
853.884766	8707.115234
852.710938	8413.617188
851.538086	8418.451172
850.364258	8621.352539
849.189453	8491.994141
848.015625	8458.487305
846.840820	8620.824219
845.666016	8655.408203
844.491211	8558.055664
843.316406	8447.972656
842.140625	8567.649414
840.965820	8487.378906
839.790039	8624.012695
838.613281	8526.752930
837.437500	8608.067383
836.260742	8553.346680
835.083984	8549.638672
833.907227	8516.191406
832.730469	8574.083008
831.552734	8583.112305
830.375977	8549.676758
829.198242	8713.663086
828.019531	8571.977539
826.841797	8555.536133
825.663086	8524.250000
824.484375	8599.031250
823.305664	8574.109375
822.126953	8591.604492
820.947266	8649.370117
819.767578	8592.659180
818.587891	8620.735352
817.408203	8583.118164
816.228516	8736.168945
815.047852	8622.296875
813.867188	8760.458984
812.686523	8631.803711
811.504883	8757.210938
810.324219	8637.068359
809.142578	8662.975586
807.960938	8650.791016
806.779297	8754.948242
805.596680	8605.286133
804.415039	8597.346680
803.232422	8528.102539
802.048828	8553.998047
800.866211	8643.282227
799.682617	8639.565430
798.500000	8597.826172
797.315430	8651.145508
796.131836	8607.305664
794.948242	8481.141602
793.763672	8477.457031
792.579102	8701.709961
791.394531	8744.408203
790.208984	8698.480469
789.024414	8490.149414
787.838867	8650.962891
786.653320	8613.511719
785.466797	8611.912109
784.281250	8538.648438
783.094727	8566.567383
781.908203	8617.651367
780.721680	8662.396484
779.534180	8612.344727
778.347656	8665.497070
777.160156	8695.469727
775.972656	8477.034180
774.784180	8641.727539
773.596680	8593.828125
772.408203	8543.842773
771.219727	8474.944336
770.031250	8525.946289
768.841797	8595.854492
767.653320	8552.210938
766.463867	8498.073242
765.274414	8546.930664
764.083984	8322.621094
762.894531	8619.380859
761.704102	8718.596680
760.513672	8672.875977
759.322266	8557.886719
758.131836	8451.335938
756.940430	8537.914062
755.749023	8538.424805
754.557617	8545.229492
753.365234	8476.516602
752.173828	8514.787109
750.981445	8402.071289
749.789062	8509.524414
748.595703	8686.107422
747.403320	8497.975586
746.209961	8362.296875
745.016602	8496.909180
743.823242	8543.501953
742.628906	8585.888672
741.435547	8630.353516
740.241211	8599.440430
739.046875	8428.310547
737.851562	8380.706055
736.657227	8598.824219
735.461914	8521.919922
734.266602	8271.457031
733.070312	8541.748047
731.875000	8460.714844
730.678711	8517.665039
729.482422	8587.133789
728.286133	8579.266602
727.089844	8623.627930
725.892578	8544.741211
724.695312	8566.121094
723.498047	8499.800781
722.300781	8661.042969
721.102539	8559.248047
719.904297	8576.434570
718.706055	8612.390625
717.507812	8579.497070
716.308594	8484.047852
715.110352	8494.978516
713.911133	8533.005859
712.711914	8458.461914
711.511719	8571.505859
710.311523	8507.399414
709.112305	8534.979492
707.912109	8595.873047
706.710938	8621.342773
705.510742	8563.519531
704.309570	8407.878906
703.108398	8485.400391
701.907227	8558.730469
700.705078	8684.045898
699.502930	8528.497070
698.301758	8510.268555
697.098633	8535.712891
695.896484	8584.015625
694.693359	8678.028320
693.491211	8601.594727
692.287109	8581.290039
691.083984	8604.618164
689.880859	8681.939453
688.676758	8568.181641
687.472656	8662.089844
686.268555	8432.128906
685.063477	8609.044922
683.858398	8588.762695
682.654297	8609.981445
681.448242	8670.603516
680.243164	8575.658203
679.037109	8686.028320
677.832031	8642.943359
676.625977	8635.111328
675.418945	8581.689453
674.212891	8687.830078
673.005859	8534.981445
671.798828	8564.455078
670.591797	8535.934570
669.383789	8693.764648
668.176758	8565.867188
666.968750	8655.332031
665.760742	8635.091797
664.551758	8635.546875
663.343750	8602.906250
662.134766	8593.026367
660.925781	8641.045898
659.715820	8686.979492
658.506836	8582.008789
657.296875	8454.343750
656.086914	8677.977539
654.876953	8719.737305
653.666016	8647.882812
652.456055	8417.047852
651.245117	8531.094727
650.034180	8605.876953
648.822266	8511.393555
647.611328	8464.405273
646.399414	8559.788086
645.187500	8512.806641
643.974609	8509.152344
642.762695	8441.579102
641.549805	8518.338867
640.336914	8512.623047
639.124023	8537.820312
637.910156	8396.116211
636.696289	8297.724609
635.483398	8504.194336
634.268555	8521.135742
633.054688	8527.776367
631.839844	8501.478516
630.625000	8689.231445
629.410156	8599.124023
628.195312	8515.221680
626.979492	8521.855469
625.764648	8590.182617
624.548828	8625.584961
623.332031	8747.316406
622.116211	8455.868164
620.899414	8532.375000
619.682617	8565.705078
618.465820	8679.138672
617.248047	8615.897461
616.031250	8758.025391
614.813477	8516.174805
613.595703	8660.320312
612.376953	8724.372070
611.159180	8753.516602
609.940430	8708.793945
608.721680	8686.650391
607.502930	8557.875000
606.283203	8699.797852
605.063477	8462.416992
603.843750	8487.475586
602.624023	8655.971680
601.403320	8654.348633
600.183594	8705.986328
598.962891	8563.036133
597.742188	8514.333984
596.520508	8488.169922
595.299805	8525.469727
594.078125	8452.241211
592.856445	8460.887695
591.633789	8475.666992
590.412109	8543.620117
589.189453	8474.532227
587.966797	8462.719727
586.743164	8363.007812
585.520508	8578.087891
584.296875	8476.348633
583.073242	8384.861328
581.849609	8434.356445
580.625000	8363.333984
579.401367	8390.351562
578.176758	8588.849609
576.952148	8546.414062
575.726562	8542.769531
574.500977	8394.255859
573.276367	8570.162109
572.049805	8423.738281
570.824219	8477.216797
569.598633	8506.208008
568.372070	8408.801758
567.145508	8541.738281
565.917969	8591.077148
564.691406	8518.156250
563.463867	8331.192383
562.236328	8498.664062
561.008789	8378.967773
559.780273	8420.145508
558.552734	8569.185547
557.324219	8524.839844
556.094727	8488.648438
554.866211	8393.475586
553.636719	8400.034180
552.407227	8546.902344
551.177734	8486.334961
549.948242	8342.446289
548.717773	8353.072266
547.488281	8575.021484
546.256836	8260.541016
545.026367	8376.799805
543.795898	8458.489258
542.564453	8462.990234
541.333008	8296.961914
540.100586	8360.351562
538.869141	8259.342773
537.636719	8416.045898
536.404297	8280.578125
535.171875	8362.175781
533.939453	8326.129883
532.706055	8484.729492
531.472656	8331.105469
530.239258	8404.524414
529.004883	8439.415039
527.771484	8379.076172
526.537109	8164.821289
525.302734	8398.199219
524.067383	8339.925781
522.833008	8243.209961
521.597656	8187.011230
520.362305	8294.744141
519.126953	8315.437500
517.890625	8228.913086
516.654297	8433.654297
515.417969	8256.145508
514.181641	8171.700684
512.944336	8372.293945
511.708008	8299.983398
510.470703	8235.783203
509.233398	8391.805664
507.995117	8279.135742
506.756836	8311.906250
505.518555	8383.025391
504.280273	8474.303711
503.041992	8402.067383
501.802734	8507.432617
500.563477	8324.252930
499.324219	8413.455078
498.084961	8456.237305
496.844727	8390.120117
495.604492	8265.562500
494.364258	8397.035156
493.124023	8280.583984
491.882812	8343.497070
490.642578	8315.736328
489.401367	8328.266602
488.159180	8356.901367
486.917969	8365.392578
485.675781	8345.698242
484.433594	8299.847656
483.191406	8288.220703
481.948242	8298.727539
480.705078	8405.779297
479.462891	8297.608398
478.218750	8275.935547
476.975586	8173.859375
475.731445	8198.445312
474.487305	8116.517090
473.243164	8384.211914
471.999023	8161.664062
470.753906	8284.644531
469.508789	8339.304688
468.263672	8167.081055
467.018555	8283.967773
465.772461	8342.610352
464.526367	8206.599609
463.280273	8431.741211
462.034180	8311.810547
460.787109	8304.224609
459.540039	8262.556641
458.292969	8110.649902
457.045898	8185.278809
455.797852	8223.809570
454.550781	8266.332031
453.302734	8240.733398
452.053711	8157.064941
450.805664	8141.507324
449.556641	8202.029297
448.307617	8116.413086
447.058594	8256.964844
445.808594	8265.408203
444.559570	8069.802246
443.309570	8204.281250
442.059570	8224.727539
440.808594	8205.178711
439.557617	8171.644043
438.307617	8072.169922
437.055664	8146.574219
435.804688	8298.864258
434.552734	8049.614258
433.300781	8002.160156
432.048828	7906.803223
430.796875	8332.513672
429.543945	8143.321289
428.291016	8189.673828
427.038086	8034.497070
425.785156	8068.883301
424.531250	8055.390137
423.278320	8181.483398
422.023438	8229.776367
420.769531	8210.279297
419.515625	8140.966797
418.260742	8258.976562
417.005859	8345.067383
415.750000	8474.944336
414.495117	8469.356445
413.239258	8447.842773
411.983398	8436.290039
410.727539	8572.020508
409.470703	8433.095703
408.214844	8373.802734
406.958008	8282.707031
405.700195	8145.903320
404.443359	8142.372070
403.185547	8236.252930
401.927734	8105.497559
400.669922	8247.042969
399.411133	7887.845703
398.153320	8150.553711
396.894531	7976.217773
395.635742	7887.333496
394.375977	7951.355469
393.116211	8076.887695
391.857422	7855.065430
390.596680	7992.472656
389.336914	7992.940918
388.076172	7929.937988
386.815430	7976.028809
385.554688	7958.654785
384.293945	7982.916504
383.032227	7925.907227
381.770508	7946.201660
380.508789	7796.103027
379.247070	7838.203125
377.984375	7915.935059
376.721680	8029.278809
375.458984	7932.729004
374.196289	7844.132812
372.932617	7941.593262
371.668945	7898.535645
370.405273	7904.949707
369.141602	7792.690430
367.876953	8026.530273
366.613281	8050.708984
365.347656	7831.742188
364.083008	7810.492188
362.818359	7929.542969
361.552734	7920.135254
360.287109	7804.069336
359.020508	7676.197754
357.754883	7682.638184
356.488281	7781.857910
355.221680	7934.329590
353.955078	7749.302246
352.687500	7808.992188
351.419922	7614.194824
350.152344	7790.248047
348.884766	7940.599609
347.616211	7753.773438
346.348633	7716.820312
345.080078	7762.651367
343.810547	7729.650879
342.541992	7696.662598
341.272461	7594.750488
340.002930	7683.891113
338.733398	7633.209473
337.462891	7665.222168
336.193359	7834.989746
334.922852	7660.340332
333.651367	7700.198242
332.380859	7602.352539
331.109375	7618.606445
329.837891	7603.394043
328.566406	7772.977051
327.293945	7822.601074
326.022461	7606.916992
324.750000	7509.198242
323.477539	7698.312500
322.204102	7742.019531
320.930664	7642.365723
319.657227	7705.698730
318.383789	7772.932617
317.110352	7594.829590
315.835938	7709.148926
314.561523	7725.337402
313.287109	7719.944336
312.011719	7726.318848
310.737305	7840.524902
309.461914	7821.390137
308.185547	7772.863770
306.910156	7926.184570
305.633789	7879.615234
304.357422	8101.413086
303.081055	8101.828613
301.804688	8231.472656
300.527344	8286.675781
299.250000	8279.225586
297.972656	8420.501953
296.694336	8481.506836
295.416992	8542.487305
294.138672	8873.340820
292.860352	8779.746094
291.581055	8494.594727
290.301758	8229.097656
289.022461	8051.643555
287.743164	7815.640137
286.463867	7775.079590
285.183594	7711.096191
283.903320	7604.175293
282.623047	7557.820312
281.342773	7581.755859
280.061523	7613.488770
278.780273	7297.876953
277.499023	7497.431641
276.216797	7523.309570
274.935547	7242.998047
273.653320	7335.207520
272.370117	7322.111816
271.087891	7422.066895
269.804688	7334.908203
268.521484	7430.925293
267.238281	7314.578125
265.955078	7311.234863
264.670898	7352.678223
263.386719	7353.222168
262.102539	7295.371094
260.817383	7402.960449
259.533203	7335.392578
258.248047	7248.396484
256.962891	7258.682617
255.676758	7216.459961
254.390625	7463.945312
253.104492	7353.663574
251.818359	7365.863770
250.532227	7197.348145
249.245117	7326.138184
247.958008	7309.200195
246.670898	7498.121582
245.382812	7442.323242
244.095703	7330.249023
242.807617	7208.512695
241.518555	7296.399902
240.230469	7364.851562
238.941406	7285.853027
237.652344	7288.339355
236.363281	7341.239746
235.074219	7244.841797
233.784180	7191.122559
232.494141	7428.114258
231.204102	7405.381348
229.913086	7531.820312
228.622070	7807.346680
227.331055	8115.687012
226.040039	8243.852539
224.749023	7820.290527
223.457031	7540.105469
222.165039	7428.369629
220.873047	7297.330566
219.580078	7301.737305
218.287109	7217.184570
216.994141	7001.186035
215.701172	7133.231934
214.407227	6967.583008
213.114258	7072.531250
211.820312	7073.109863
210.525391	7015.738770
209.231445	7107.097168
207.936523	7053.602539
206.641602	7002.058594
205.346680	6834.723633
204.050781	6912.537109
202.754883	6903.496094
201.458984	6909.890625
200.163086	6958.713379
198.866211	6828.183594
197.569336	6894.354004
196.272461	6887.250977
194.975586	6826.188477
193.677734	6917.369629
192.379883	6796.603027
191.082031	6756.778809
189.784180	6882.583496
188.485352	6752.265137
187.187500	6824.121094
185.887695	6792.019531
184.588867	6704.126465
183.289062	6831.742188
181.989258	6847.744629
180.689453	6900.280762
179.389648	6775.899414
178.088867	6788.057617
176.788086	6684.887695
175.487305	6827.732422
174.186523	6736.121582
172.884766	6786.695312
171.583008	6704.729980
170.281250	6803.294922
168.979492	6750.154297
167.676758	6754.618164
166.374023	6766.756348
165.071289	6636.902832
163.767578	6798.690918
162.463867	6668.880859
161.160156	6625.413574
159.856445	6641.397461
158.552734	6580.699219
157.248047	6617.767090
155.943359	6585.838379
154.638672	6542.427246
153.333008	6615.873047
152.027344	6570.556641
150.721680	6532.916016
149.416016	6667.578613
148.110352	6591.654297
146.803711	6569.339355
145.497070	6568.078125
144.189453	6561.078125
142.882812	6504.355957
141.575195	6548.997559
140.267578	6379.505859
138.959961	6433.710449
137.651367	6535.669434
136.342773	6350.991699
135.034180	6340.220215
133.725586	6310.353027
132.416016	6320.597656
131.106445	6201.014160
129.796875	6197.913574
128.487305	6145.194336
127.176758	6060.057617
125.866211	5845.229004
124.555664	5836.476074
123.244141	5799.121582
121.933594	5616.878418
120.622070	5457.580078
119.309570	5342.178223
117.998047	5102.961914
116.685547	4840.975586
115.373047	4405.754883
114.060547	4016.406982
112.748047	3581.511963
111.434570	2954.511963
110.121094	2481.921631
108.806641	2116.078125
107.493164	1657.148804
106.178711	1314.431152
104.864258	996.569275
103.549805	713.056396
102.234375	486.686157
100.918945	393.455658
99.603516	266.054047
