#Wave		#Intensity
1998.943359	5342.200684
1997.975586	5223.370605
1997.007812	5191.466309
1996.039062	5198.308594
1995.071289	5316.170898
1994.102539	5224.892578
1993.133789	5314.317383
1992.165039	5305.649414
1991.196289	5320.205078
1990.227539	5386.349121
1989.257812	5253.869629
1988.288086	5350.947266
1987.318359	5308.760742
1986.348633	5248.543945
1985.378906	5193.502930
1984.409180	5244.136719
1983.438477	5204.574219
1982.467773	5270.644531
1981.497070	5254.271484
1980.526367	5376.963379
1979.555664	5273.036621
1978.584961	5346.770508
1977.613281	5142.505371
1976.641602	5301.157715
1975.669922	5305.378906
1974.698242	5312.170410
1973.726562	5426.984863
1972.753906	5287.172852
1971.782227	5317.103516
1970.809570	5354.735840
1969.836914	5392.354980
1968.863281	5273.203613
1967.890625	5333.947266
1966.917969	5461.460938
1965.944336	5219.074219
1964.970703	5138.555176
1963.997070	5289.143555
1963.023438	5365.232910
1962.048828	5428.462402
1961.075195	5445.478027
1960.100586	5431.698242
1959.125977	5307.615234
1958.151367	5370.810059
1957.176758	5233.958496
1956.201172	5345.858398
1955.226562	5429.520996
1954.250977	5256.847168
1953.275391	5240.553223
1952.299805	5393.368164
1951.323242	5507.703613
1950.347656	5442.709473
1949.371094	5282.987305
1948.394531	5438.247559
1947.417969	5311.860352
1946.441406	5367.241211
1945.464844	5292.091309
1944.487305	5260.463379
1943.509766	5482.102539
1942.532227	5332.797852
1941.554688	5296.064453
1940.577148	5369.286133
1939.599609	5376.016602
1938.621094	5124.598145
1937.642578	5343.471680
1936.664062	5380.862793
1935.685547	5303.285156
1934.707031	5241.059082
1933.727539	5378.041016
1932.749023	5453.697754
1931.769531	5399.135742
1930.790039	5515.599121
1929.810547	5466.148438
1928.830078	5365.686523
1927.850586	5362.196777
1926.870117	5435.225098
1925.889648	5273.617676
1924.909180	5377.231445
1923.928711	5322.757324
1922.948242	5306.533203
1921.966797	5445.762695
1920.985352	5271.554199
1920.003906	5347.055176
1919.022461	5391.965332
1918.041016	5268.787598
1917.059570	5466.460938
1916.077148	5203.302734
1915.094727	5235.479492
1914.112305	5318.540527
1913.129883	5363.407227
1912.147461	5347.205078
1911.164062	5351.355957
1910.180664	5439.423340
1909.197266	5379.993164
1908.213867	5399.387695
1907.230469	5339.984863
1906.247070	5486.438965
1905.262695	5246.647949
1904.278320	5476.896973
1903.294922	5404.821777
1902.309570	5309.916992
1901.325195	5286.136230
1900.340820	5396.905762
1899.355469	5274.132324
1898.370117	5285.896973
1897.384766	5378.847168
1896.399414	5276.435059
1895.414062	5399.789551
1894.427734	5355.733887
1893.442383	5385.220215
1892.456055	5389.346680
1891.469727	5287.021484
1890.482422	5275.958496
1889.496094	5358.644043
1888.508789	5334.906250
1887.522461	5242.792480
1886.535156	5383.682617
1885.547852	5273.869141
1884.559570	5424.829590
1883.572266	5239.117676
1882.583984	5250.852051
1881.595703	5530.770996
1880.607422	5279.366699
1879.619141	5382.138184
1878.630859	5330.619629
1877.641602	5466.213867
1876.653320	5321.166504
1875.664062	5365.727051
1874.674805	5450.703613
1873.684570	5389.110840
1872.695312	5312.382812
1871.705078	5367.015137
1870.715820	5383.750488
1869.725586	5271.716309
1868.735352	5404.580566
1867.744141	5338.011719
1866.753906	5506.145508
1865.762695	5245.310547
1864.771484	5178.803711
1863.780273	5387.230469
1862.789062	5419.066895
1861.797852	5387.861328
1860.805664	5495.309570
1859.813477	5264.993652
1858.821289	5246.430664
1857.829102	5326.132324
1856.836914	5385.653809
1855.844727	5349.448242
1854.851562	5376.208496
1853.858398	5372.747070
1852.865234	5522.838379
1851.872070	5418.680176
1850.878906	5309.524902
1849.884766	5331.235840
1848.890625	5410.794922
1847.897461	5344.454102
1846.903320	5280.650391
1845.908203	5438.114746
1844.914062	5384.371582
1843.918945	5197.443848
1842.923828	5420.172852
1841.929688	5286.063965
1840.933594	5363.005859
1839.938477	5364.575195
1838.943359	5378.698730
1837.947266	5427.966309
1836.951172	5399.400391
1835.955078	5498.841309
1834.958984	5422.596191
1833.961914	5381.501465
1832.965820	5443.266113
1831.968750	5404.689941
1830.971680	5331.021484
1829.974609	5392.761719
1828.977539	5456.986816
1827.979492	5400.890625
1826.982422	5430.010742
1825.984375	5451.604004
1824.986328	5375.498535
1823.988281	5424.642578
1822.989258	5458.744629
1821.991211	5217.441895
1820.992188	5489.365723
1819.993164	5300.698730
1818.994141	5392.349609
1817.995117	5241.292480
1816.995117	5460.491211
1815.996094	5494.543945
1814.996094	5466.071777
1813.996094	5397.608887
1812.996094	5324.170898
1811.996094	5528.166016
1810.995117	5367.274414
1809.994141	5383.818359
1808.993164	5340.407227
1807.992188	5411.892578
1806.991211	5288.588379
1805.990234	5519.835449
1804.988281	5448.973145
1803.986328	5400.596680
1802.984375	5372.198730
1801.982422	5323.852539
1800.980469	5210.669922
1799.977539	5394.301270
1798.975586	5410.805664
1797.972656	5472.178711
1796.969727	5503.618652
1795.966797	5400.471680
1794.962891	5496.697266
1793.959961	5398.569824
1792.956055	5300.477051
1791.952148	5349.351562
1790.948242	5423.107910
1789.943359	5364.893555
1788.939453	5401.284668
1787.934570	5497.390137
1786.929688	5451.634277
1785.924805	5463.112305
1784.919922	5432.302246
1783.915039	5543.254883
1782.909180	5353.308594
1781.903320	5431.916992
1780.897461	5366.335449
1779.891602	5459.824707
1778.885742	5478.739746
1777.879883	5284.002441
1776.873047	5456.937988
1775.866211	5289.590332
1774.859375	5248.930664
1773.852539	5344.823242
1772.844727	5391.040039
1771.837891	5355.346680
1770.830078	5339.515625
1769.822266	5239.344238
1768.814453	5335.152344
1767.806641	5500.363281
1766.797852	5308.476562
1765.789062	5426.532227
1764.781250	5286.775879
1763.772461	5310.624512
1762.762695	5272.522461
1761.753906	5375.637207
1760.744141	5496.052734
1759.735352	5299.449219
1758.725586	5293.562500
1757.714844	5297.579590
1756.705078	5328.820801
1755.695312	5273.438965
1754.684570	5393.743652
1753.673828	5355.685547
1752.663086	5555.079590
1751.652344	5321.647949
1750.640625	5308.346680
1749.629883	5460.674316
1748.618164	5331.188477
1747.606445	5352.487793
1746.594727	5336.718750
1745.583008	5232.025391
1744.570312	5394.110352
1743.557617	5259.810547
1742.545898	5273.695801
1741.533203	5277.701660
1740.519531	5244.684570
1739.506836	5253.628906
1738.493164	5403.201172
1737.479492	5456.516113
1736.465820	5300.172852
1735.452148	5373.213867
1734.438477	5342.679199
1733.423828	5329.410156
1732.410156	5367.902344
1731.395508	5315.206543
1730.380859	5449.772461
1729.366211	5372.447754
1728.350586	5354.258301
1727.334961	5380.398926
1726.320312	5369.600098
1725.304688	5196.342285
1724.288086	5340.629883
1723.272461	5342.146973
1722.256836	5412.549805
1721.240234	5281.223145
1720.223633	5307.342773
1719.207031	5340.829590
1718.190430	5423.474609
1717.172852	5235.702148
1716.155273	5360.116211
1715.138672	5273.166016
1714.121094	5345.937012
1713.102539	5340.078613
1712.084961	5373.517090
1711.066406	5230.149414
1710.048828	5388.801758
1709.030273	5402.576172
1708.011719	5335.358398
1706.992188	5393.304199
1705.973633	5250.058594
1704.954102	5420.830566
1703.934570	5334.036133
1702.915039	5350.256348
1701.895508	5275.763184
1700.875977	5257.671387
1699.855469	5344.966309
1698.834961	5358.722168
1697.814453	5377.372070
1696.793945	5349.477051
1695.773438	5355.877441
1694.751953	5536.120117
1693.730469	5290.331055
1692.709961	5416.672852
1691.687500	5381.452637
1690.666016	5412.308105
1689.644531	5462.723633
1688.622070	5302.770996
1687.599609	5230.912598
1686.577148	5410.920898
1685.554688	5248.617188
1684.532227	5382.118652
1683.508789	5322.515137
1682.485352	5341.119141
1681.461914	5244.899902
1680.438477	5500.429688
1679.415039	5421.310547
1678.391602	5259.204590
1677.367188	5321.743164
1676.342773	5254.900391
1675.318359	5312.536621
1674.293945	5360.392578
1673.268555	5374.079590
1672.244141	5329.225098
1671.218750	5355.104980
1670.193359	5444.367188
1669.167969	5392.210449
1668.141602	5298.638184
1667.116211	5287.951172
1666.089844	5304.068848
1665.063477	5346.976074
1664.037109	5297.317383
1663.010742	5381.607422
1661.983398	5370.914551
1660.957031	5160.616211
1659.929688	5376.311523
1658.902344	5458.093262
1657.875000	5308.714844
1656.846680	5409.939453
1655.819336	5440.597168
1654.791016	5364.250488
1653.762695	5321.968262
1652.734375	5345.332031
1651.705078	5317.649902
1650.676758	5382.314941
1649.647461	5264.743652
1648.618164	5377.976074
1647.588867	5432.880859
1646.559570	5225.518555
1645.529297	5331.413574
1644.500000	5255.219238
1643.469727	5273.702148
1642.439453	5202.397949
1641.409180	5276.682617
1640.377930	5416.432617
1639.347656	5291.785645
1638.316406	5288.421387
1637.285156	5224.449707
1636.253906	5381.076660
1635.222656	5338.921875
1634.190430	5299.205078
1633.158203	5232.853516
1632.125977	5258.568359
1631.093750	5347.239746
1630.061523	5227.645020
1629.029297	5248.504395
1627.996094	5274.197266
1626.962891	5203.079590
1625.929688	5146.504395
1624.896484	5177.039551
1623.863281	5226.913574
1622.829102	5223.566406
1621.794922	5229.892090
1620.760742	5374.010254
1619.726562	5196.612305
1618.692383	5251.270508
1617.657227	5308.325195
1616.622070	5259.067383
1615.587891	5340.252930
1614.551758	5305.495605
1613.516602	5268.335938
1612.481445	5318.093750
1611.445312	5326.802734
1610.409180	5366.879395
1609.373047	5240.463379
1608.336914	5147.863770
1607.300781	5289.249023
1606.263672	5406.469727
1605.226562	5369.343262
1604.189453	5305.712891
1603.152344	5225.233887
1602.115234	5258.041016
1601.077148	5177.598633
1600.039062	5251.352539
1599.000977	5166.123047
1597.962891	5225.404297
1596.924805	5313.555664
1595.885742	5189.845215
1594.847656	5326.105469
1593.808594	5204.842285
1592.769531	5203.916504
1591.730469	5186.152344
1590.690430	5242.949707
1589.651367	5275.681152
1588.611328	5123.279785
1587.571289	5252.169434
1586.531250	5135.875977
1585.490234	5223.868164
1584.450195	5218.133301
1583.409180	5399.758789
1582.368164	5228.283691
1581.327148	5284.980957
1580.285156	5226.421875
1579.244141	5268.697266
1578.202148	5289.357910
1577.160156	5254.823242
1576.118164	5227.498047
1575.076172	5233.763184
1574.033203	5244.821777
1572.991211	5188.739258
1571.948242	5063.153809
1570.905273	5239.622559
1569.862305	5406.441895
1568.818359	5197.022949
1567.775391	5303.899902
1566.731445	5247.865234
1565.687500	5160.718750
1564.643555	5140.644043
1563.598633	5111.001465
1562.554688	5191.468750
1561.509766	5257.549316
1560.464844	5148.943848
1559.419922	5219.791992
1558.374023	5163.850586
1557.329102	5284.889160
1556.283203	5130.927734
1555.237305	5204.118164
1554.191406	5310.743652
1553.145508	5204.652344
1552.098633	5265.844238
1551.052734	5181.297363
1550.005859	5266.354492
1548.958984	5177.061523
1547.912109	5362.364258
1546.864258	5306.504883
1545.816406	5243.504883
1544.769531	5283.135742
1543.721680	5215.390137
1542.672852	5233.542969
1541.625000	5237.379395
1540.576172	5183.984863
1539.528320	5171.139160
1538.479492	5172.600098
1537.430664	5112.095703
1536.380859	5049.229492
1535.332031	5236.539062
1534.282227	5261.806152
1533.232422	5341.839844
1532.182617	5278.977051
1531.132812	5206.613281
1530.082031	5208.063965
1529.031250	5295.188965
1527.981445	5348.970703
1526.929688	5279.024414
1525.878906	5349.439453
1524.828125	5338.971191
1523.776367	5143.043457
1522.724609	5220.576172
1521.672852	5131.699219
1520.621094	5171.182617
1519.569336	5312.821289
1518.516602	5276.237793
1517.463867	5315.673340
1516.411133	5229.232422
1515.358398	5202.180176
1514.305664	5196.502930
1513.251953	5252.538574
1512.198242	5258.719238
1511.144531	5245.916016
1510.090820	5178.556641
1509.037109	5108.848633
1507.982422	5129.278320
1506.927734	5128.361328
1505.873047	5189.078125
1504.818359	5067.275391
1503.763672	5177.744629
1502.708984	5127.064453
1501.653320	5161.680176
1500.597656	5191.546875
1499.541992	5081.691406
1498.486328	5215.733398
1497.429688	5176.926758
1496.373047	5173.634277
1495.317383	5272.092773
1494.260742	5233.295898
1493.203125	5225.263672
1492.146484	5186.488770
1491.088867	5159.550293
1490.031250	5137.349609
1488.973633	5297.166016
1487.916016	5097.698730
1486.858398	5148.770508
1485.799805	5221.085938
1484.741211	5177.634766
1483.682617	5096.412598
1482.624023	5135.641113
1481.565430	5111.113770
1480.505859	5105.478516
1479.446289	5005.446777
1478.386719	5096.572266
1477.327148	5154.637207
1476.267578	5139.562500
1475.207031	5037.237305
1474.147461	5095.281250
1473.086914	5191.022949
1472.026367	5135.882812
1470.964844	5090.187988
1469.904297	5143.467773
1468.842773	5192.017090
1467.781250	5158.112793
1466.719727	5025.315918
1465.658203	5116.239258
1464.595703	5087.074707
1463.533203	5126.174805
1462.471680	5122.903320
1461.409180	5093.751953
1460.345703	5024.621094
1459.283203	5120.149902
1458.219727	5109.826660
1457.156250	5242.922852
1456.092773	5110.345703
1455.029297	5151.734375
1453.965820	5056.817871
1452.901367	4994.827148
1451.836914	5029.166504
1450.772461	5004.779297
1449.708008	4947.526855
1448.642578	4995.941895
1447.578125	5128.842285
1446.512695	5134.963379
1445.447266	5028.452148
1444.381836	5036.934570
1443.315430	5087.634766
1442.250000	4955.391602
1441.183594	5067.051758
1440.117188	5166.950195
1439.050781	5006.635742
1437.983398	5083.073730
1436.916992	5089.190918
1435.849609	5092.963379
1434.782227	5099.076660
1433.714844	4964.677246
1432.647461	5052.760254
1431.579102	4958.213867
1430.510742	5104.779785
1429.442383	5068.761719
1428.374023	4948.525879
1427.305664	5113.728516
1426.236328	5077.727051
1425.167969	5055.769531
1424.098633	5043.171875
1423.028320	5063.305176
1421.958984	5074.082031
1420.889648	5084.854980
1419.819336	5034.878418
1418.749023	5043.317871
1417.678711	5072.774414
1416.608398	5111.560059
1415.537109	5117.646484
1414.465820	5077.044434
1413.395508	5069.130859
1412.323242	4981.883301
1411.251953	5097.639160
1410.180664	5031.410645
1409.108398	5170.437500
1408.036133	4880.370605
1406.963867	5026.368164
1405.891602	5172.312988
1404.818359	5045.536621
1403.746094	5060.940430
1402.672852	4957.525391
1401.599609	5140.645020
1400.525391	5174.653320
1399.452148	5045.661133
1398.377930	5086.657715
1397.303711	5095.053711
1396.229492	5008.033203
1395.155273	5095.548340
1394.081055	5045.779785
1393.005859	5126.278809
1391.930664	5046.291016
1390.855469	5036.083008
1389.780273	5063.073242
1388.704102	5169.077148
1387.628906	5077.519043
1386.552734	5032.461426
1385.476562	5150.027344
1384.400391	5007.425293
1383.323242	4992.591797
1382.247070	5007.945801
1381.169922	4993.116699
1380.092773	5008.464355
1379.014648	4905.462891
1377.937500	4962.581543
1376.859375	4989.523926
1375.782227	4926.007324
1374.704102	5052.654297
1373.625000	5047.108398
1372.546875	4965.071289
1371.467773	5070.784180
1370.388672	5062.920410
1369.309570	5045.791992
1368.230469	4933.701172
1367.151367	4932.812988
1366.071289	4964.341309
1364.991211	4900.941406
1363.911133	5085.228516
1362.831055	4968.602539
1361.750977	4990.845703
1360.669922	4996.886719
1359.588867	4903.468262
1358.507812	5062.150391
1357.426758	4910.950684
1356.345703	4866.143555
1355.263672	4964.652344
1354.181641	4857.457520
1353.099609	5083.007324
1352.017578	4961.969238
1350.935547	4926.430664
1349.852539	5041.003418
1348.769531	4924.655273
1347.686523	4981.477051
1346.603516	4975.963379
1345.520508	4912.762695
1344.436523	4958.019531
1343.352539	5056.314453
1342.268555	4986.213867
1341.184570	5086.773926
1340.100586	4949.833984
1339.015625	5089.549805
1337.930664	5010.274414
1336.845703	5016.283691
1335.760742	4985.429199
1334.675781	5023.687988
1333.589844	5114.900391
1332.503906	5137.003418
1331.417969	5041.688965
1330.332031	5201.900391
1329.246094	5065.184570
1328.159180	5002.146484
1327.072266	5086.361816
1325.985352	5055.543457
1324.898438	5112.122559
1323.811523	4993.938965
1322.723633	5199.931152
1321.635742	5134.637695
1320.547852	4991.235352
1319.459961	5098.320801
1318.371094	4977.947754
1317.283203	5094.183594
1316.194336	4999.114258
1315.105469	5071.681152
1314.016602	5029.446289
1312.926758	5033.128418
1311.837891	5080.407715
1310.748047	5024.427734
1309.658203	5073.985352
1308.568359	5013.439453
1307.477539	4996.482910
1306.387695	4892.413574
1305.296875	4907.575195
1304.206055	4959.399414
1303.114258	5047.866211
1302.023438	4914.079590
1300.931641	4954.421387
1299.840820	4971.847168
1298.748047	4822.117676
1297.656250	4867.032227
1296.564453	4964.574707
1295.471680	4879.004395
1294.378906	4804.904785
1293.286133	4820.049805
1292.193359	4963.273438
1291.099609	4905.206055
1290.006836	4911.178711
1288.913086	5015.445801
1287.819336	4847.692383
1286.725586	4913.085449
1285.630859	4848.224609
1284.536133	4813.082520
1283.442383	4814.496094
1282.346680	4909.532715
1281.251953	4856.133789
1280.157227	4855.255371
1279.061523	4865.788574
1277.965820	4890.008789
1276.870117	4779.614746
1275.774414	4758.221191
1274.677734	4752.798828
1273.581055	4822.625488
1272.485352	4787.555664
1271.387695	4757.057617
1270.291016	4870.145020
1269.194336	4853.313477
1268.096680	4729.416016
1266.999023	4744.503906
1265.901367	4798.300781
1264.803711	4927.215332
1263.705078	4837.540527
1262.606445	4904.946777
1261.507812	4797.102539
1260.409180	4750.729004
1259.310547	4922.756836
1258.210938	4717.166992
1257.111328	4768.614746
1256.011719	4792.761230
1254.912109	4812.351562
1253.812500	4756.933105
1252.711914	4783.340332
1251.612305	4787.017578
1250.511719	4742.991211
1249.410156	4776.198730
1248.309570	4875.245605
1247.208008	4642.790039
1246.107422	4626.059570
1245.005859	4659.263672
1243.903320	4694.724609
1242.801758	4721.097656
1241.699219	4797.362793
1240.597656	4748.868652
1239.495117	4761.612305
1238.391602	4676.869629
1237.289062	4771.219238
1236.185547	4688.770996
1235.082031	4733.236816
1233.978516	4723.317383
1232.875000	4625.067383
1231.771484	4751.043945
1230.666992	4707.163574
1229.562500	4647.452637
1228.458008	4635.292969
1227.353516	4636.715332
1226.248047	4712.799316
1225.143555	4714.206543
1224.038086	4706.566406
1222.931641	4674.054688
1221.826172	4777.206543
1220.720703	4581.940918
1219.614258	4689.591309
1218.507812	4668.403809
1217.401367	4590.743164
1216.294922	4770.615234
1215.187500	4568.751465
1214.080078	4689.853516
1212.972656	4727.381348
1211.865234	4627.207520
1210.757812	4657.962402
1209.649414	4760.909180
1208.541016	4782.604004
1207.432617	4578.737793
1206.324219	4695.172852
1205.215820	4599.622070
1204.106445	4634.855957
1202.997070	4546.111816
1201.887695	4475.428223
1200.778320	4596.281738
1199.668945	4633.742188
1198.558594	4551.819336
1197.448242	4674.844238
1196.337891	4752.795410
1195.227539	4675.396484
1194.117188	4690.301758
1193.005859	4518.433105
1191.894531	4576.106934
1190.783203	4678.747559
1189.671875	4635.166504
1188.559570	4647.815430
1187.447266	4739.145996
1186.334961	4650.621582
1185.222656	4647.528809
1184.110352	4657.918945
1182.998047	4582.936523
1181.884766	4494.503906
1180.771484	4635.167480
1179.658203	4495.115234
1178.543945	4510.012207
1177.430664	4708.952148
1176.316406	4616.088379
1175.202148	4574.862305
1174.087891	4657.031250
1172.972656	4595.626953
1171.858398	4534.244629
1170.743164	4598.439453
1169.627930	4492.245605
1168.512695	4590.042480
1167.396484	4663.154785
1166.281250	4548.044922
1165.165039	4488.977051
1164.048828	4490.399902
1162.931641	4451.516113
1161.815430	4625.331543
1160.698242	4548.384766
1159.581055	4634.837891
1158.463867	4600.430664
1157.346680	4619.727539
1156.228516	4545.073730
1155.111328	4555.427734
1153.993164	4637.328125
1152.875000	4482.232422
1151.755859	4459.064941
1150.637695	4565.519043
1149.518555	4437.332031
1148.399414	4400.781738
1147.280273	4415.614746
1146.160156	4510.833008
1145.041016	4465.357910
1143.920898	4486.867188
1142.800781	4407.934082
1141.680664	4422.751465
1140.559570	4444.255859
1139.439453	4559.439941
1138.318359	4536.306641
1137.197266	4450.746094
1136.075195	4398.658203
1134.954102	4462.498047
1133.832031	4561.972656
1132.709961	4449.730469
1131.587891	4417.730469
1130.465820	4457.018066
1129.342773	4456.205566
1128.220703	4491.018555
1127.097656	4512.461426
1125.974609	4471.574707
1124.850586	4504.139648
1123.727539	4363.145996
1122.603516	4520.293457
1121.479492	4368.227051
1120.355469	4391.891113
1119.230469	4419.993652
1118.106445	4456.977051
1116.981445	4538.397461
1115.856445	4453.128906
1114.730469	4430.099121
1113.605469	4524.807129
1112.479492	4381.843750
1111.353516	4463.202637
1110.227539	4429.086914
1109.101562	4330.612305
1107.974609	4465.198242
1106.848633	4324.593750
1105.721680	4452.475586
1104.594727	4498.242188
1103.466797	4395.408691
1102.339844	4496.600098
1101.211914	4462.526367
1100.083984	4492.741699
1098.956055	4423.224121
1097.827148	4431.278809
1096.699219	4565.599121
1095.570312	4425.230957
1094.441406	4479.783203
1093.311523	4472.322754
1092.182617	4407.311035
1091.052734	4433.064453
1089.922852	4343.742188
1088.792969	4464.630859
1087.663086	4450.542969
1086.532227	4547.040039
1085.402344	4508.619141
1084.271484	4465.790039
1083.139648	4531.285645
1082.008789	4366.918945
1080.876953	4348.443848
1079.746094	4416.133301
1078.614258	4360.106934
1077.481445	4482.978516
1076.349609	4305.521973
1075.216797	4355.508789
1074.083984	4370.162109
1072.951172	4528.249023
1071.818359	4414.897461
1070.685547	4493.503906
1069.551758	4439.749512
1068.417969	4394.834473
1067.284180	4435.920898
1066.149414	4402.044434
1065.015625	4394.627441
1063.880859	4354.160156
1062.746094	4401.832031
1061.611328	4253.444824
1060.476562	4415.637695
1059.340820	4315.743652
1058.205078	4442.641113
1057.069336	4415.415039
1055.933594	4449.818359
1054.796875	4367.592773
1053.661133	4459.188965
1052.524414	4359.395508
1051.387695	4338.805664
1050.250000	4269.852051
1049.113281	4409.760254
1047.975586	4375.984863
1046.837891	4430.120605
1045.700195	4363.396973
1044.561523	4380.171387
1043.423828	4269.555664
1042.285156	4345.628906
1041.146484	4303.119141
1040.007812	4381.353516
1038.868164	4415.665527
1037.728516	4456.547363
1036.589844	4321.905762
1035.449219	4446.141113
1034.309570	4445.326172
1033.169922	4383.117188
1032.029297	4305.585449
1030.888672	4296.028809
1029.748047	4290.858887
1028.606445	4246.251465
1027.465820	4289.286133
1026.324219	4384.870605
1025.182617	4432.243164
1024.041016	4265.033203
1022.898438	4384.648438
1021.756836	4298.487305
1020.614258	4378.664062
1019.471680	4207.209961
1018.328125	4285.186035
1017.185547	4363.133301
1016.041992	4373.266602
1014.898438	4381.209473
1013.754883	4264.556641
1012.610352	4289.999512
1011.466797	4341.653320
1010.322266	4345.226074
1009.177734	4294.191406
1008.033203	4293.403809
1006.887695	4244.580566
1005.742188	4283.096191
1004.597656	4267.031738
1003.451172	4375.359863
1002.305664	4293.829102
1001.160156	4369.391113
1000.013672	4220.279297
998.867188	4208.601562
997.720703	4382.246582
996.573242	4326.946777
995.426758	4282.563965
994.279297	4316.642090
993.131836	4298.420410
991.983398	4090.699951
990.835938	4246.751953
989.687500	4250.326660
988.539062	4325.741699
987.390625	4242.235840
986.242188	4274.099609
985.092773	4325.534180
983.944336	4302.985352
982.794922	4280.444824
981.644531	4257.912109
980.495117	4176.683105
979.344727	4188.958496
978.194336	4244.697754
977.043945	4239.571777
975.893555	4199.685547
974.742188	4303.180176
973.591797	4319.764160
972.440430	4236.455566
971.289062	4348.570312
970.136719	4258.774902
968.985352	4177.693359
967.833008	4300.605957
966.680664	4249.917969
965.528320	4177.558594
964.375000	4319.919922
963.221680	4241.068848
962.069336	4244.624512
960.915039	4274.187988
959.761719	4256.065430
958.608398	4188.116699
957.454102	4258.832520
956.299805	4253.717285
955.145508	4192.301758
953.990234	4167.714844
952.834961	4212.405762
951.680664	4174.838379
950.525391	4241.149414
949.369141	4194.936523
948.213867	4230.936035
947.057617	4253.946777
945.901367	4225.054199
944.745117	4243.732910
943.588867	4374.800781
942.431641	4235.687500
941.274414	4172.248047
940.117188	4141.236328
938.959961	4157.752441
937.801758	4174.262695
936.644531	4151.902832
935.486328	4250.437500
934.328125	4245.337891
933.168945	4175.503906
932.010742	4183.364746
930.851562	4189.064941
929.692383	4153.786133
928.533203	4148.708496
927.373047	3994.875244
926.213867	4190.289551
925.053711	4124.864258
923.893555	4169.353027
922.732422	4121.189941
921.572266	4187.201172
920.411133	4218.732422
919.250000	4133.982910
918.088867	4163.358887
916.926758	4190.571777
915.765625	4189.798828
914.603516	4279.390625
913.441406	4196.858398
912.279297	4206.838379
911.116211	4083.493164
909.953125	4095.639648
908.790039	4081.987061
907.626953	4171.498047
906.463867	4153.538574
905.299805	4150.624023
904.135742	4216.445312
902.971680	4101.846191
901.807617	4210.595215
900.643555	4044.516846
899.478516	4181.138672
898.313477	4096.673828
897.148438	4108.791016
895.982422	4116.613281
894.817383	4096.550781
893.651367	4157.981934
892.485352	4056.446289
891.319336	4081.420654
890.152344	3969.220459
888.986328	4144.198242
887.819336	4145.575195
886.652344	4095.543213
885.484375	4081.937256
884.317383	4130.431641
883.149414	4018.345459
881.981445	4073.254639
880.813477	4140.983398
879.644531	4129.520508
878.475586	4197.213867
877.307617	4098.050781
876.137695	4112.262695
874.968750	4137.159668
873.798828	4050.888428
872.629883	4127.082031
871.459961	4068.623291
870.289062	4012.322754
869.119141	4052.166992
867.948242	4002.296875
866.777344	4007.962891
865.606445	3996.547607
864.435547	4057.709473
863.263672	4088.971191
862.092773	4143.691895
860.920898	4140.792480
859.748047	4146.425293
858.576172	4026.236328
857.403320	4021.227539
856.230469	4180.365234
855.057617	4045.316406
853.884766	4106.366211
852.710938	4039.558594
851.538086	4106.977051
850.364258	4091.308594
849.189453	4041.575684
848.015625	4025.925049
846.840820	4146.510254
845.666016	4064.871094
844.491211	4010.923584
843.316406	3939.976318
842.140625	3994.549805
840.965820	4074.622314
839.790039	4029.217041
838.613281	4068.862061
837.437500	4123.370605
836.260742	4194.858887
835.083984	4134.591797
833.907227	4127.453125
832.730469	3995.008789
831.552734	4079.208008
830.375977	4235.561035
829.198242	4166.850586
828.019531	4102.409668
826.841797	4025.260742
825.663086	4043.608887
824.484375	4025.890625
823.305664	4131.181152
822.126953	4115.573242
820.947266	4161.449707
819.767578	4099.211426
818.587891	4109.047363
817.408203	4222.699219
816.228516	4160.483887
815.047852	4098.291504
813.867188	3951.417969
812.686523	4143.350098
811.504883	4091.778809
810.324219	4184.142090
809.142578	3997.156982
807.960938	4087.387695
806.779297	3980.868164
805.596680	4092.216309
804.415039	4116.831055
803.232422	4048.417480
802.048828	4094.167236
800.866211	4148.352539
799.682617	4090.535400
798.500000	4159.488770
797.315430	4057.336426
796.131836	3961.556885
794.948242	3967.155762
793.763672	4095.185791
792.579102	3925.583496
791.394531	4034.582031
790.208984	4137.210938
789.024414	4054.177979
787.838867	4011.246338
786.653320	3993.633057
785.466797	4081.435059
784.281250	4105.970703
783.094727	4012.483154
781.908203	4058.092041
780.721680	3920.408691
779.534180	4001.823242
778.347656	4057.937500
777.160156	4050.867676
775.972656	4035.379883
774.784180	3982.013916
773.596680	4031.776611
772.408203	3944.768555
771.219727	4023.968262
770.031250	3932.787354
768.841797	4020.370361
767.653320	4030.134766
766.463867	4016.774170
765.274414	3995.012451
764.083984	4008.978027
762.894531	4071.255371
761.704102	4047.394531
760.513672	4111.741211
759.322266	4001.798828
758.131836	4022.046631
756.940430	3935.248047
755.749023	3890.449707
754.557617	4072.253906
753.365234	4008.567871
752.173828	4028.794678
750.981445	3904.331543
749.789062	3945.534424
748.595703	3888.206543
747.403320	3912.631592
746.209961	3913.999023
745.016602	4011.730957
743.823242	3912.542725
742.628906	3920.191162
741.435547	4013.679443
740.241211	3922.918945
739.046875	3953.583252
737.851562	3984.235840
736.657227	4002.323730
735.461914	4028.771973
734.266602	3848.162354
733.070312	3949.905029
731.875000	3903.176025
730.678711	4006.960693
729.482422	3968.597656
728.286133	3963.679688
727.089844	3975.475830
725.892578	3897.454834
724.695312	3921.788330
723.498047	3929.409424
722.300781	4033.052490
721.102539	4003.081787
719.904297	3966.861572
718.706055	3999.503906
717.507812	3927.836670
716.308594	3908.334717
715.110352	4053.568359
713.911133	3950.658691
712.711914	4070.817139
711.511719	3995.034424
710.311523	3946.366699
709.112305	3885.217529
707.912109	4038.623291
706.710938	3935.830322
705.510742	3947.588867
704.309570	3917.709473
703.108398	3879.515869
701.907227	3955.785645
700.705078	3942.564941
699.502930	3898.147217
698.301758	3970.210938
697.098633	3954.914795
695.896484	3935.466553
694.693359	3982.539551
693.491211	3956.858398
692.287109	3841.841553
691.083984	4030.168701
689.880859	3940.104980
688.676758	3962.212646
687.472656	3965.625732
686.268555	3969.037354
685.063477	3986.975830
683.858398	3977.931396
682.654297	3981.338379
681.448242	3864.433838
680.243164	3932.151855
679.037109	3877.505859
677.832031	3907.879150
676.625977	4060.533691
675.418945	3987.242432
674.212891	3957.489990
673.005859	3973.323730
671.798828	4030.575684
670.591797	3897.290039
669.383789	4055.985596
668.176758	3960.005859
666.968750	3866.131104
665.760742	3941.972168
664.551758	4009.509033
663.343750	4031.513428
662.134766	3941.831055
660.925781	3862.520508
659.715820	4029.253662
658.506836	3927.219727
657.296875	3967.817139
656.086914	3905.089844
654.876953	3863.043945
653.666016	3934.611084
652.456055	3882.250000
651.245117	3974.432861
650.034180	3870.477051
648.822266	3890.391846
647.611328	3871.093018
646.399414	3891.000000
645.187500	3836.641846
643.974609	3922.541992
642.762695	3897.064941
641.549805	3892.212891
640.336914	3895.607178
639.124023	3911.364502
637.910156	3865.303955
636.696289	3928.441162
635.483398	3886.513428
634.268555	3918.733887
633.054688	3948.883545
631.839844	3820.519287
630.625000	3980.334717
629.410156	3876.704834
628.195312	3880.093750
626.979492	3862.911865
625.764648	3950.620117
624.548828	3867.634033
623.332031	3862.798340
622.116211	3919.625732
620.899414	3881.901855
619.682617	3961.304932
618.465820	3950.291748
617.248047	3974.197998
616.031250	3967.293213
614.813477	4024.036377
613.595703	3957.596191
612.376953	3903.494629
611.159180	4007.411621
609.940430	3998.454590
608.721680	3854.124268
607.502930	3875.960449
606.283203	3940.846436
605.063477	3911.407959
603.843750	3888.128906
602.624023	3936.581787
601.403320	3941.990234
600.183594	3885.942627
598.962891	3825.819824
597.742188	3823.054688
596.520508	3801.864746
595.299805	3878.935059
594.078125	3884.347412
592.856445	3875.434326
591.633789	3778.555664
590.412109	3859.662842
589.189453	3787.363281
587.966797	3835.724121
586.743164	3814.562012
585.520508	3862.898926
584.296875	3894.869873
583.073242	3798.113525
581.849609	3785.144531
580.625000	3808.942139
579.401367	3855.191895
578.176758	3815.678711
576.952148	3786.385986
575.726562	3820.368896
574.500977	3878.823486
573.276367	3759.773682
572.049805	3726.433350
570.824219	3872.560791
569.598633	3718.917480
568.372070	3763.066162
567.145508	3774.588135
565.917969	3767.765869
564.691406	3685.564453
563.463867	3754.128906
562.236328	3788.045654
561.008789	3750.682373
559.780273	3782.550781
558.552734	3796.088135
557.324219	3823.865723
556.094727	3737.690918
554.866211	3828.531494
553.636719	3827.812012
552.407227	3709.148193
551.177734	3767.412109
549.948242	3717.917725
548.717773	3761.931152
547.488281	3866.887695
546.256836	3801.149170
545.026367	3778.090820
543.795898	3767.226318
542.564453	3701.542969
541.333008	3717.087402
540.100586	3657.527100
538.869141	3794.833008
537.636719	3765.714111
536.404297	3691.977539
535.171875	3723.733887
533.939453	3716.949951
532.706055	3756.799072
531.472656	3689.199951
530.239258	3643.919434
529.004883	3746.573486
527.771484	3695.221191
526.537109	3666.168701
525.302734	3732.307861
524.067383	3656.689697
522.833008	3767.341553
521.597656	3629.001465
520.362305	3707.238770
519.126953	3653.937012
517.890625	3604.700928
516.654297	3664.695801
515.417969	3716.579834
514.181641	3626.925049
512.944336	3638.369873
511.708008	3718.522217
510.470703	3655.184570
509.233398	3690.859131
507.995117	3740.658691
506.756836	3673.313232
505.518555	3719.058838
504.280273	3647.705322
503.041992	3640.963135
501.802734	3704.849609
500.563477	3809.062012
499.324219	3600.579590
498.084961	3739.056641
496.844727	3691.975342
495.604492	3769.903076
494.364258	3765.161133
493.124023	3746.314209
491.882812	3691.206787
490.642578	3628.062256
489.401367	3655.575195
488.159180	3739.461914
486.917969	3634.063232
485.675781	3685.714600
484.433594	3652.818359
483.191406	3623.958496
481.948242	3665.522949
480.705078	3618.568604
479.462891	3623.918945
478.218750	3633.288574
476.975586	3620.541260
475.731445	3639.957031
474.487305	3697.546631
473.243164	3634.564941
471.999023	3625.843994
470.753906	3683.403076
469.508789	3542.146484
468.263672	3555.531250
467.018555	3470.554932
465.772461	3682.629150
464.526367	3601.673828
463.280273	3639.109863
462.034180	3600.313477
460.787109	3577.574707
459.540039	3600.958740
458.292969	3660.416992
457.045898	3609.619629
455.797852	3516.760742
454.550781	3630.294189
453.302734	3563.506104
452.053711	3574.849121
450.805664	3548.143311
449.556641	3541.467041
448.307617	3570.821533
447.058594	3550.134521
445.808594	3557.466797
444.559570	3580.799805
443.309570	3530.121094
442.059570	3545.451416
440.808594	3582.768066
439.557617	3562.101318
438.307617	3549.436523
437.055664	3502.807129
435.804688	3526.118408
434.552734	3537.436035
433.300781	3542.758057
432.048828	3576.031494
430.796875	3541.417969
429.543945	3610.604980
428.291016	3512.140869
427.038086	3589.287354
425.785156	3536.744141
424.531250	3573.968506
423.278320	3515.465576
422.023438	3458.978027
420.769531	3486.229248
419.515625	3648.986572
418.260742	3660.250977
417.005859	3673.503174
415.750000	3772.395752
414.495117	3799.561035
413.239258	3870.517822
411.983398	3766.272217
410.727539	3743.666260
409.470703	3816.582764
408.214844	3811.880859
406.958008	3560.529541
405.700195	3587.697510
404.443359	3604.913330
403.185547	3564.470703
401.927734	3581.683838
400.669922	3489.592285
399.411133	3492.904785
398.153320	3498.202393
396.894531	3420.081299
395.635742	3488.933838
394.375977	3448.565430
393.116211	3439.971924
391.857422	3538.550293
390.596680	3416.841553
389.336914	3408.258301
388.076172	3457.199219
386.815430	3436.712646
385.554688	3424.164551
384.293945	3362.062500
383.032227	3412.956299
381.770508	3338.989990
380.508789	3342.319092
379.247070	3345.646973
377.984375	3396.504395
376.721680	3419.621338
375.458984	3460.546631
374.196289	3319.356934
372.932617	3447.359863
371.668945	3290.396973
370.405273	3357.031982
369.141602	3390.018311
367.876953	3306.321289
366.613281	3278.014648
365.347656	3340.647217
364.083008	3318.273438
362.818359	3374.946289
361.552734	3315.038086
360.287109	3344.036865
359.020508	3343.401855
357.754883	3354.613770
356.488281	3273.039062
355.221680	3390.840332
353.955078	3299.422852
352.687500	3281.039307
351.419922	3315.922852
350.152344	3342.903809
348.884766	3287.057373
347.616211	3254.889404
346.348633	3285.808350
345.080078	3273.359619
343.810547	3300.322510
342.541992	3339.094727
341.272461	3245.889160
340.002930	3247.241455
338.733398	3278.125732
337.462891	3181.047607
336.193359	3270.975342
334.922852	3250.676270
333.651367	3240.221436
332.380859	3275.010986
331.109375	3268.488281
329.837891	3285.562744
328.566406	3345.879395
327.293945	3284.313232
326.022461	3155.956787
324.750000	3243.769287
323.477539	3199.936279
322.204102	3189.507812
320.930664	3289.044922
319.657227	3327.683838
318.383789	3336.864990
317.110352	3332.304932
315.835938	3172.739502
314.561523	3234.911377
313.287109	3295.098145
312.011719	3327.807861
310.737305	3352.662598
309.461914	3289.296387
308.185547	3320.028076
306.910156	3370.343018
305.633789	3461.780273
304.357422	3525.760010
303.081055	3601.465576
301.804688	3708.470215
300.527344	3721.467285
299.250000	3754.031982
297.972656	3673.084473
296.694336	3852.384277
295.416992	3914.247070
294.138672	4085.609375
292.860352	4237.352051
291.581055	4097.737793
290.301758	3762.710938
289.022461	3603.696777
287.743164	3448.651123
286.463867	3363.991699
285.183594	3341.865723
283.903320	3227.966553
282.623047	3293.733643
281.342773	3160.366455
280.061523	3204.652344
278.780273	3221.603027
277.499023	3131.245850
276.216797	3146.253174
274.935547	3083.247070
273.653320	3176.250244
272.370117	3097.666504
271.087891	3128.260742
269.804688	3061.408203
268.521484	3070.565918
267.238281	3001.801514
265.955078	3059.656250
264.670898	3031.811523
263.386719	3151.937012
262.102539	3137.710205
260.817383	3006.722900
259.533203	3025.606201
258.248047	3118.405762
256.962891	3063.350830
255.676758	3014.150635
254.390625	3091.344971
253.104492	3110.193359
251.818359	3099.882080
250.532227	3044.882568
249.245117	3077.327881
247.958008	3088.394531
246.670898	3146.064941
245.382812	3124.105957
244.095703	3168.158447
242.807617	3051.099121
241.518555	3031.110840
240.230469	3106.197998
238.941406	3033.832275
237.652344	3064.283203
236.363281	3054.002441
235.074219	2989.442383
233.784180	2963.672852
232.494141	3141.396729
231.204102	3189.235352
229.913086	3333.915527
228.622070	3559.886719
227.331055	3839.992188
226.040039	3899.276611
224.749023	3604.302246
223.457031	3332.664551
222.165039	3186.904053
220.873047	3064.414551
219.580078	2920.695068
218.287109	3032.300537
216.994141	2936.979004
215.701172	2913.219727
214.407227	2910.729492
213.114258	2975.873779
211.820312	2803.354980
210.525391	2992.119873
209.231445	2968.371826
207.936523	2882.843750
206.641602	2897.736328
205.346680	2771.720703
204.050781	2888.907959
202.754883	2861.342773
201.458984	2970.751465
200.163086	2808.172607
198.866211	2882.839355
197.569336	2836.016602
196.272461	2899.083496
194.975586	2833.003174
193.677734	2867.143799
192.379883	2810.726807
191.082031	2792.853271
189.784180	2805.798584
188.485352	2801.410156
187.187500	2810.498535
185.887695	2879.246582
184.588867	2772.860596
183.289062	2745.394531
181.989258	2866.050537
180.689453	2703.956055
179.389648	2788.040527
178.088867	2797.118164
176.788086	2735.076172
175.487305	2761.455566
174.186523	2766.689941
172.884766	2758.475586
171.583008	2742.582031
170.281250	2793.901855
168.979492	2639.778809
167.676758	2742.923828
166.374023	2757.750732
165.071289	2667.041016
163.767578	2743.264160
162.463867	2687.115967
161.160156	2721.117676
159.856445	2684.167480
158.552734	2744.993164
157.248047	2713.802002
155.943359	2730.526611
154.638672	2722.339355
153.333008	2756.294434
152.027344	2690.653564
150.721680	2667.160645
149.416016	2693.449219
148.110352	2691.018066
146.803711	2726.859375
145.497070	2768.426758
144.189453	2720.073730
142.882812	2673.651855
141.575195	2592.829346
140.267578	2643.948730
138.959961	2639.617920
137.651367	2637.199951
136.342773	2745.600098
135.034180	2552.134277
133.725586	2641.409912
132.416016	2518.691406
131.106445	2537.299316
129.796875	2508.179443
128.487305	2479.070557
127.176758	2463.329590
125.866211	2323.593018
124.555664	2338.405273
123.244141	2303.630127
121.933594	2228.829346
120.622070	2192.182129
119.309570	2142.207764
117.998047	2046.520142
116.685547	1945.153809
115.373047	1765.730469
114.060547	1607.324585
112.748047	1351.873169
111.434570	1140.304565
110.121094	1012.563171
108.806641	797.335205
107.493164	624.046875
106.178711	507.891632
104.864258	376.566254
103.549805	279.518127
102.234375	203.419601
100.918945	186.273682
99.603516	114.023163
