#Wave		#Intensity
1998.943359	3637.243164
1997.975586	3577.827881
1997.007812	3649.523193
1996.039062	3646.304932
1995.071289	3684.398193
1994.102539	3634.708008
1993.133789	3579.873047
1992.165039	3630.860352
1991.196289	3627.647217
1990.227539	3606.377441
1989.257812	3737.288818
1988.288086	3628.328857
1987.318359	3594.177979
1986.348633	3536.838135
1985.378906	3626.431152
1984.409180	3553.643555
1983.438477	3663.814209
1982.467773	3645.142822
1981.497070	3590.418945
1980.526367	3734.002441
1979.555664	3777.121338
1978.584961	3622.005859
1977.613281	3577.618896
1976.641602	3636.182617
1975.669922	3581.516602
1974.698242	3557.739502
1973.726562	3528.826416
1972.753906	3744.223389
1971.782227	3687.005127
1970.809570	3506.413818
1969.836914	3595.760010
1968.863281	3685.075195
1967.890625	3645.891846
1966.917969	3670.944336
1965.944336	3582.976562
1964.970703	3638.846924
1963.997070	3671.589844
1963.023438	3575.966309
1962.048828	3698.541016
1961.075195	3700.461426
1960.100586	3584.356445
1959.125977	3650.428467
1958.151367	3649.791016
1957.176758	3546.577393
1956.201172	3702.359619
1955.226562	3650.442627
1954.250977	3685.687988
1953.275391	3651.730225
1952.299805	3553.729980
1951.323242	3694.003906
1950.347656	3583.223633
1949.371094	3608.206055
1948.394531	3640.860596
1947.417969	3586.465820
1946.441406	3606.315186
1945.464844	3715.723633
1944.487305	3612.730713
1943.509766	3676.052979
1942.532227	3683.083496
1941.554688	3687.554443
1940.577148	3679.239502
1939.599609	3765.512451
1938.621094	3690.732910
1937.642578	3669.644043
1936.664062	3541.251709
1935.685547	3647.924561
1934.707031	3580.879639
1933.727539	3654.310059
1932.749023	3689.416260
1931.769531	3658.137695
1930.790039	3631.974854
1929.810547	3539.471436
1928.830078	3686.836182
1927.850586	3594.355469
1926.870117	3616.681885
1925.889648	3700.202637
1924.909180	3625.615479
1923.928711	3686.162354
1922.948242	3637.090820
1921.966797	3679.776123
1920.985352	3582.312988
1920.003906	3688.678223
1919.022461	3733.878418
1918.041016	3590.619141
1917.059570	3640.912598
1916.077148	3711.553467
1915.094727	3682.906738
1914.112305	3697.530762
1913.129883	3607.832764
1912.147461	3729.306641
1911.164062	3715.936768
1910.180664	3659.340820
1909.197266	3793.454346
1908.213867	3569.086914
1907.230469	3690.460693
1906.247070	3654.237793
1905.262695	3722.198242
1904.278320	3647.877441
1903.294922	3738.673828
1902.309570	3555.181152
1901.325195	3600.260010
1900.340820	3594.552246
1899.355469	3670.065186
1898.370117	3697.336426
1897.384766	3681.465576
1896.399414	3571.740479
1895.414062	3708.075195
1894.427734	3763.214355
1893.442383	3531.832520
1892.456055	3670.636963
1891.469727	3624.372314
1890.482422	3747.907227
1889.496094	3595.232178
1888.508789	3589.535645
1887.522461	3652.225342
1886.535156	3689.569824
1885.547852	3752.219727
1884.559570	3624.991211
1883.572266	3654.727539
1882.583984	3681.922607
1881.595703	3759.709961
1880.607422	3791.936035
1879.619141	3824.150879
1878.630859	3674.283691
1877.641602	3660.997803
1876.653320	3602.214844
1875.664062	3644.549561
1874.674805	3795.529297
1873.684570	3706.434814
1872.695312	3718.415283
1871.705078	3702.609131
1870.715820	3775.190674
1869.725586	3605.369141
1868.735352	3607.260986
1867.744141	3758.061035
1866.753906	3512.628174
1865.762695	3693.667480
1864.771484	3642.568359
1863.780273	3747.857910
1862.789062	3772.416992
1861.797852	3683.511963
1860.805664	3710.594238
1859.813477	3636.853027
1858.821289	3643.774414
1857.829102	3691.004639
1856.836914	3614.786377
1855.844727	3591.484619
1854.851562	3605.962891
1853.858398	3690.931152
1852.865234	3702.869385
1851.872070	3654.400146
1850.878906	3638.660156
1849.884766	3713.499023
1848.890625	3710.331299
1847.897461	3604.048096
1846.903320	3696.455322
1845.908203	3756.145752
1844.914062	3750.458740
1843.918945	3795.038818
1842.923828	3618.474121
1841.929688	3821.341797
1840.933594	3762.895752
1839.938477	3664.286133
1838.943359	3638.531494
1837.947266	3622.828613
1836.951172	3637.253174
1835.955078	3726.964600
1834.958984	3683.651611
1833.961914	3723.145996
1832.965820	3657.272705
1831.968750	3626.534180
1830.971680	3741.243652
1829.974609	3677.908447
1828.977539	3744.941650
1827.979492	3759.320557
1826.982422	3675.969238
1825.984375	3645.259033
1824.986328	3744.813721
1823.988281	3699.075195
1822.989258	3653.352539
1821.991211	3657.717285
1820.992188	3584.483398
1819.993164	3623.895996
1818.994141	3678.308105
1817.995117	3632.628662
1816.995117	3824.595215
1815.996094	3768.902100
1814.996094	3730.731689
1813.996094	3535.071533
1812.996094	3634.433838
1811.996094	3788.743164
1810.995117	3748.096924
1809.994141	3664.993652
1808.993164	3689.327393
1807.992188	3643.724609
1806.991211	3663.059326
1805.990234	3557.560059
1804.988281	3639.305176
1803.986328	3643.656006
1802.984375	3787.737061
1801.982422	3704.742676
1800.980469	3756.471680
1799.977539	3663.536133
1798.975586	3702.786377
1797.972656	3699.641602
1796.969727	3666.586670
1795.966797	3793.040283
1794.962891	3687.720703
1793.959961	3644.719971
1792.956055	3641.587158
1791.952148	3675.811279
1790.948242	3742.392578
1789.943359	3677.006104
1788.939453	3673.869385
1787.934570	3658.290283
1786.929688	3680.039551
1785.924805	3654.513672
1784.919922	3584.225098
1783.915039	3596.027832
1782.909180	3689.879150
1781.903320	3753.864990
1780.897461	3596.612793
1779.891602	3804.729736
1778.885742	3622.677002
1777.879883	3726.376953
1776.873047	3720.752686
1775.866211	3682.846191
1774.859375	3679.714111
1773.852539	3602.107910
1772.844727	3591.544678
1771.837891	3744.772217
1770.830078	3731.706055
1769.822266	3646.702393
1768.814453	3705.586914
1767.806641	3764.450684
1766.797852	3538.157959
1765.789062	3589.593018
1764.781250	3554.260010
1763.772461	3583.370605
1762.762695	3741.310791
1761.753906	3547.425049
1760.744141	3623.580566
1759.735352	3674.945312
1758.725586	3627.254150
1757.714844	3587.006104
1756.705078	3648.250000
1755.695312	3697.098877
1754.684570	3721.188477
1753.673828	3601.791260
1752.663086	3509.642822
1751.652344	3617.830322
1750.640625	3565.270508
1749.629883	3589.361328
1748.618164	3655.460205
1747.606445	3593.036621
1746.594727	3513.339844
1745.583008	3685.638184
1744.570312	3731.914307
1743.557617	3694.214600
1742.545898	3663.934814
1741.533203	3604.043213
1740.519531	3635.491943
1739.506836	3595.367432
1738.493164	3612.003174
1737.479492	3534.895020
1736.465820	3711.847412
1735.452148	3617.487305
1734.438477	3648.899414
1733.423828	3589.093994
1732.410156	3571.207764
1731.395508	3711.034424
1730.380859	3626.611816
1729.366211	3662.920410
1728.350586	3548.981689
1727.334961	3516.343018
1726.320312	3621.587158
1725.304688	3581.562256
1724.288086	3718.751953
1723.272461	3553.229004
1722.256836	3712.517090
1721.240234	3719.240479
1720.223633	3593.154541
1719.207031	3575.306641
1718.190430	3582.050293
1717.172852	3633.036377
1716.155273	3649.597656
1715.138672	3582.607666
1714.121094	3554.949707
1713.102539	3564.146484
1712.084961	3681.399658
1711.066406	3604.628906
1710.048828	3508.245117
1709.030273	3618.081543
1708.011719	3622.349854
1706.992188	3560.365967
1705.973633	3628.428467
1704.954102	3603.257812
1703.934570	3627.144775
1702.915039	3631.406982
1701.895508	3704.311279
1700.875977	3632.572998
1699.855469	3519.198242
1698.834961	3621.486572
1697.814453	3618.395752
1696.793945	3561.419434
1695.773438	3702.828613
1694.751953	3638.511719
1693.730469	3566.872803
1692.709961	3615.194580
1691.687500	3663.499268
1690.666016	3645.723145
1689.644531	3652.416748
1688.622070	3722.701904
1687.599609	3660.905273
1686.577148	3591.795410
1685.554688	3598.493164
1684.532227	3573.414062
1683.508789	3633.875244
1682.485352	3625.901611
1681.461914	3669.231445
1680.438477	3539.130859
1679.415039	3594.670654
1678.391602	3659.957031
1677.367188	3666.632080
1676.342773	3646.456787
1675.318359	3618.967285
1674.293945	3637.844971
1673.268555	3542.062256
1672.244141	3604.848877
1671.218750	3587.139893
1670.193359	3625.514404
1669.167969	3651.686768
1668.141602	3499.928223
1667.116211	3701.565918
1666.089844	3705.782715
1665.063477	3641.790283
1664.037109	3748.308838
1663.010742	3625.888428
1661.983398	3734.806396
1660.957031	3585.654541
1659.929688	3684.805420
1658.902344	3569.782715
1657.875000	3593.479248
1656.846680	3629.329834
1655.819336	3682.192383
1654.791016	3776.374023
1653.762695	3520.424805
1652.734375	3636.478760
1651.705078	3640.694336
1650.676758	3596.309570
1649.647461	3547.081543
1648.618164	3706.771240
1647.588867	3635.682861
1646.559570	3448.065186
1645.529297	3578.553467
1644.500000	3607.046631
1643.469727	3628.248779
1642.439453	3547.530762
1641.409180	3576.013672
1640.377930	3587.507080
1639.347656	3526.240479
1638.316406	3593.507812
1637.285156	3384.376953
1636.253906	3657.677734
1635.222656	3594.017822
1634.190430	3578.841309
1633.158203	3568.515381
1632.125977	3613.903320
1631.093750	3652.009521
1630.061523	3569.035889
1629.029297	3609.557373
1627.996094	3727.519043
1626.962891	3661.515869
1625.929688	4280.285156
1624.896484	6301.957031
1623.863281	3838.552246
1622.829102	3567.018799
1621.794922	3631.667969
1620.760742	3573.003662
1619.726562	3632.794434
1618.692383	3458.153809
1617.657227	3646.000488
1616.622070	3717.824707
1615.587891	3695.426270
1614.551758	3673.035400
1613.516602	3638.580322
1612.481445	3703.112061
1611.445312	3506.952637
1610.409180	3583.550537
1609.373047	3479.165771
1608.336914	3635.347168
1607.300781	3641.936279
1606.263672	3547.242188
1605.226562	3585.187744
1604.189453	3671.331543
1603.152344	3567.041504
1602.115234	3641.108887
1601.077148	3686.238037
1600.039062	3649.449219
1599.000977	3730.687256
1597.962891	3590.358398
1596.924805	3628.241211
1595.885742	3596.302734
1594.847656	3634.170654
1593.808594	3551.709473
1592.769531	3560.700928
1591.730469	3603.365479
1590.690430	3641.204590
1589.651367	3594.869385
1588.611328	3651.929443
1587.571289	3567.148682
1586.531250	3655.436279
1585.490234	3664.396973
1584.450195	3536.414551
1583.409180	3759.173584
1582.368164	3645.629150
1581.327148	3680.997559
1580.285156	3543.499756
1579.244141	3499.663086
1578.202148	3568.636719
1577.160156	3575.199463
1576.118164	3600.952148
1575.076172	3573.926025
1574.033203	3551.705811
1572.991211	3594.232910
1571.948242	3646.333740
1570.905273	3530.633057
1569.862305	3580.330078
1568.818359	3567.711914
1567.775391	3533.537598
1566.731445	3461.052246
1565.687500	3592.147461
1564.643555	3526.860352
1563.598633	3540.595215
1562.554688	3602.194824
1561.509766	3577.622314
1560.464844	3555.450928
1559.419922	3626.583252
1558.374023	3621.153320
1557.329102	3634.855957
1556.283203	3591.171143
1555.237305	3499.691895
1554.191406	3499.067871
1553.145508	3596.419434
1552.098633	3476.317139
1551.052734	3595.136963
1550.005859	3584.942383
1548.958984	3581.915039
1547.912109	3614.701416
1546.864258	3668.959961
1545.816406	3482.145508
1544.769531	3455.275635
1543.721680	3476.131592
1542.672852	3542.302246
1541.625000	3546.440186
1540.576172	3541.038330
1539.528320	3695.373779
1538.479492	3685.179688
1537.430664	3644.006592
1536.380859	3540.894287
1535.332031	3514.055908
1534.282227	3570.596436
1533.232422	3550.906494
1532.182617	3547.891602
1531.132812	3487.740479
1530.082031	3582.329346
1529.031250	3648.325684
1527.981445	3466.837402
1526.929688	3425.775146
1525.878906	3701.079346
1524.828125	3481.627686
1523.776367	3599.892822
1522.724609	3525.553223
1521.672852	3627.129639
1520.621094	3514.788086
1519.569336	3575.937256
1518.516602	3601.430176
1517.463867	3496.278564
1516.411133	3574.021240
1515.358398	3528.270264
1514.305664	3596.483398
1513.251953	3486.660156
1512.198242	3583.333008
1511.144531	3554.220947
1510.090820	3608.146729
1509.037109	3498.399170
1507.982422	3545.201416
1506.927734	3570.648193
1505.873047	3442.001709
1504.818359	3474.567871
1503.763672	3447.880127
1502.708984	3482.802734
1501.653320	3411.114990
1500.597656	3457.873291
1499.541992	3506.982666
1498.486328	3463.739502
1497.429688	3503.361328
1496.373047	3479.067627
1495.317383	3485.544434
1494.260742	3515.677246
1493.203125	3463.008545
1492.146484	3464.754150
1491.088867	3516.155518
1490.031250	3373.676025
1488.973633	3533.807617
1487.916016	3474.092285
1486.858398	3447.478516
1485.799805	3439.774414
1484.741211	3524.192871
1483.682617	3462.159668
1482.624023	3435.566650
1481.565430	3366.489014
1480.505859	3519.310303
1479.446289	3341.684326
1478.386719	3527.488770
1477.327148	3437.211426
1476.267578	3405.933105
1475.207031	3431.264160
1474.147461	3444.796875
1473.086914	3623.343506
1472.026367	3507.202148
1470.964844	3485.364990
1469.904297	3513.014648
1468.842773	3425.223633
1467.781250	3443.452637
1466.719727	3471.094238
1465.658203	3442.218994
1464.595703	3479.267090
1463.533203	3462.168457
1462.471680	3426.250244
1461.409180	3364.464355
1460.345703	3432.079834
1459.283203	3504.374512
1458.219727	3388.522705
1457.156250	3420.830811
1456.092773	3453.126953
1455.029297	3555.918945
1453.965820	3428.391113
1452.901367	3488.861084
1451.836914	3328.504883
1450.772461	3471.170410
1449.708008	3501.073975
1448.642578	3408.885254
1447.578125	3337.855225
1446.512695	3489.803711
1445.447266	3392.973145
1444.381836	3364.212402
1443.315430	3455.087891
1442.250000	3414.600098
1441.183594	3510.123291
1440.117188	3411.031006
1439.050781	3466.673584
1437.983398	3421.524902
1436.916992	3446.685059
1435.849609	3422.640137
1434.782227	3466.528809
1433.714844	3463.564941
1432.647461	3399.725586
1431.579102	3401.456299
1430.510742	3382.121338
1429.442383	3444.698486
1428.374023	3376.228271
1427.305664	3452.819336
1426.236328	3503.655273
1425.167969	3369.733643
1424.098633	3490.707275
1423.028320	3382.549561
1421.958984	3417.000488
1420.889648	3362.640869
1419.819336	3411.100830
1418.749023	3377.784912
1417.678711	3358.494141
1416.608398	3488.657227
1415.537109	3366.626709
1414.465820	3419.710449
1413.395508	3409.760742
1412.323242	3462.817383
1411.251953	3312.882324
1410.180664	3377.599854
1409.108398	3449.290527
1408.036133	3441.675537
1406.963867	3485.352539
1405.891602	3456.755371
1404.818359	3383.888672
1403.746094	3380.950439
1402.672852	3410.628418
1401.599609	3354.113525
1400.525391	3465.294434
1399.452148	3364.550049
1398.377930	3310.401611
1397.303711	3356.357910
1396.229492	3276.631348
1395.155273	3348.170898
1394.081055	3333.611084
1393.005859	3363.248291
1391.930664	3474.266602
1390.855469	3422.490479
1389.780273	3410.251709
1388.704102	3418.935303
1387.628906	3376.491943
1386.552734	3357.297607
1385.476562	3414.767822
1384.400391	3442.024414
1383.323242	3369.418945
1382.247070	3324.700195
1381.169922	3393.740967
1380.092773	3430.264404
1379.014648	3371.635498
1377.937500	3396.549316
1376.859375	3296.194092
1375.782227	3395.326904
1374.704102	3373.846680
1373.625000	3359.329346
1372.546875	3453.760986
1371.467773	3365.072754
1370.388672	3350.564209
1369.309570	3333.743896
1368.230469	3305.348389
1367.151367	3434.442139
1366.071289	3426.877441
1364.991211	3373.014404
1363.911133	3441.845703
1362.831055	3318.572754
1361.750977	3357.309570
1360.669922	3435.359619
1359.588867	3476.374023
1358.507812	3397.121582
1357.426758	3495.930908
1356.345703	3347.351807
1355.263672	3346.748779
1354.181641	3521.772217
1353.099609	3347.853271
1352.017578	3411.931396
1350.935547	3506.010986
1349.852539	3429.175293
1348.769531	3407.778320
1347.686523	3381.771973
1346.603516	3341.927002
1345.520508	3470.547119
1344.436523	3405.322021
1343.352539	3413.934814
1342.268555	3452.526611
1341.184570	3456.515869
1340.100586	3534.278320
1339.015625	3418.388672
1337.930664	3440.818604
1336.845703	3507.020508
1335.760742	3458.008057
1334.675781	3498.845459
1333.589844	3403.792480
1332.503906	3518.306396
1331.417969	3522.275879
1330.332031	3634.425049
1329.246094	3500.293457
1328.159180	3534.175293
1327.072266	3430.016113
1325.985352	3526.000000
1324.898438	3424.179199
1323.811523	3533.924561
1322.723633	3519.493896
1321.635742	3493.576172
1320.547852	3465.369629
1319.459961	3494.612793
1318.371094	3496.279053
1317.283203	3495.647949
1316.194336	3492.720459
1315.105469	3450.763428
1314.016602	3502.937012
1312.926758	3543.615967
1311.837891	3538.386963
1310.748047	3455.154541
1309.658203	3461.412109
1308.568359	3458.493652
1307.477539	3510.608398
1306.387695	3425.147949
1305.296875	3504.755859
1304.206055	3410.159912
1303.114258	3455.371094
1302.023438	3381.436523
1300.931641	3307.528564
1299.840820	3377.924561
1298.748047	3356.707031
1297.656250	3353.811035
1296.564453	3426.448975
1295.471680	3302.252930
1294.378906	3331.400635
1293.286133	3355.962402
1292.193359	3355.355957
1291.099609	3393.625000
1290.006836	3264.973389
1288.913086	3348.964600
1287.819336	3268.364014
1286.725586	3224.355225
1285.630859	3290.029785
1284.536133	3271.160156
1283.442383	3307.111328
1282.346680	3347.616211
1281.251953	3310.481445
1280.157227	3298.469238
1279.061523	3320.695312
1277.965820	3276.739258
1276.870117	3260.176514
1275.774414	3343.984619
1274.677734	3258.997070
1273.581055	3285.769775
1272.485352	3276.056152
1271.387695	3213.920166
1270.291016	3288.544189
1269.194336	3265.163574
1268.096680	3248.625732
1266.999023	3293.592285
1265.901367	3290.718750
1264.803711	3242.308105
1263.705078	3275.868652
1262.606445	3282.103760
1261.507812	3315.644531
1260.409180	3262.713379
1259.310547	3184.778076
1258.210938	3222.866699
1257.111328	3258.667236
1256.011719	3312.643555
1254.912109	3284.765381
1253.812500	3275.079346
1252.711914	3242.672852
1251.612305	3151.207031
1250.511719	3223.325928
1249.410156	3209.114990
1248.309570	3253.948242
1247.208008	3187.519531
1246.107422	3300.437012
1245.005859	3238.562744
1243.903320	3231.168701
1242.801758	3196.552979
1241.699219	3180.095947
1240.597656	3181.787354
1239.495117	3206.152344
1238.391602	3182.901123
1237.289062	3252.589111
1236.185547	3143.221680
1235.082031	3163.043945
1233.978516	3142.082031
1232.875000	3223.051270
1231.771484	3197.556641
1230.666992	3124.523926
1229.562500	3135.276123
1228.458008	3103.020996
1227.353516	3061.725586
1226.248047	3210.495605
1225.143555	3182.768066
1224.038086	3302.060059
1222.931641	3197.442383
1221.826172	3147.123291
1220.720703	3214.365967
1219.614258	3152.761475
1218.507812	3217.718750
1217.401367	3171.950439
1216.294922	3153.304199
1215.187500	3118.855957
1214.080078	3134.095703
1212.972656	3162.875488
1211.865234	3187.130371
1210.757812	3127.875977
1209.649414	3161.153320
1208.541016	3117.716553
1207.432617	3150.983398
1206.324219	3170.707520
1205.215820	3077.688232
1204.106445	3126.724121
1202.997070	3072.062744
1201.887695	3204.460693
1200.778320	3122.767822
1199.668945	3205.549316
1198.558594	3099.110840
1197.448242	3118.814453
1196.337891	3208.305664
1195.227539	3106.426270
1194.117188	3299.415527
1193.005859	3152.552002
1191.894531	3192.475830
1190.783203	3223.387207
1189.671875	3090.111084
1188.559570	3096.295166
1187.447266	3181.162842
1186.334961	3077.187500
1185.222656	3220.458984
1184.110352	3013.154541
1182.998047	3140.659424
1181.884766	3142.334473
1180.771484	3168.711914
1179.658203	3125.474609
1178.543945	3246.131104
1177.430664	3108.626709
1176.316406	3002.589111
1175.202148	3053.647705
1174.087891	3149.552979
1172.972656	3043.565430
1171.858398	3175.316895
1170.743164	3064.878906
1169.627930	3178.644775
1168.512695	3135.483154
1167.396484	3096.818604
1166.281250	3058.168213
1165.165039	3073.291748
1164.048828	3148.878906
1162.931641	3132.631348
1161.815430	3017.883301
1160.698242	3093.438721
1159.581055	3092.875732
1158.463867	3116.926025
1157.346680	3062.666748
1156.228516	3142.632080
1155.111328	3097.333252
1153.993164	3047.578613
1152.875000	3026.904053
1151.755859	3044.233887
1150.637695	3025.801758
1149.518555	3049.828125
1148.399414	3038.103027
1147.280273	2977.245361
1146.160156	2999.033936
1145.041016	3031.977783
1143.920898	3024.728760
1142.800781	3010.786621
1141.680664	3043.709961
1140.559570	3036.462158
1139.439453	2960.066895
1138.318359	3001.902100
1137.197266	3128.455566
1136.075195	3029.790527
1134.954102	3051.528564
1133.832031	3048.743652
1132.709961	2963.516113
1131.587891	3018.670898
1130.465820	2964.663086
1129.342773	3010.889404
1128.220703	2956.902588
1127.097656	2998.660645
1125.974609	3027.049072
1124.850586	3015.370117
1123.727539	3057.094482
1122.603516	3018.719482
1121.479492	3144.945312
1120.355469	3019.842285
1119.230469	2963.708008
1118.106445	2938.715088
1116.981445	3062.640381
1115.856445	2986.529541
1114.730469	3065.966553
1113.605469	3043.193848
1112.479492	2982.674316
1111.353516	3126.462402
1110.227539	2983.805908
1109.101562	2894.473633
1107.974609	3051.514648
1106.848633	2971.077881
1105.721680	3006.031250
1104.594727	2941.158447
1103.466797	2973.886475
1102.339844	3064.251221
1101.211914	3032.655762
1100.083984	2952.309814
1098.956055	2976.147217
1097.827148	2944.584717
1096.699219	2935.186035
1095.570312	2974.517090
1094.441406	2938.542969
1093.311523	2953.504395
1092.182617	2902.051514
1091.052734	2892.668701
1089.922852	3044.823975
1088.792969	3050.904785
1087.663086	2941.959473
1086.532227	3040.943604
1085.402344	2971.841064
1084.271484	3017.724609
1083.139648	2908.864258
1082.008789	2932.642334
1080.876953	2894.543457
1079.746094	2913.896973
1078.614258	3001.715088
1077.481445	2998.958008
1076.349609	3016.073486
1075.216797	2966.955811
1074.083984	2948.756104
1072.951172	2968.077637
1071.818359	3055.788574
1070.685547	3004.493164
1069.551758	2922.338623
1068.417969	2965.906982
1067.284180	2947.726562
1066.149414	2947.187500
1065.015625	2900.365967
1063.880859	2950.516357
1062.746094	3071.147949
1061.611328	2923.004150
1060.476562	2979.729492
1059.340820	2833.858154
1058.205078	2923.601318
1057.069336	3019.915039
1055.933594	2937.936279
1054.796875	2970.403076
1053.661133	2972.059326
1052.524414	2989.111084
1051.387695	2986.364990
1050.250000	2902.268066
1049.113281	3035.832031
1047.975586	2958.350342
1046.837891	2942.426270
1045.700195	2930.902100
1044.561523	2818.334961
1043.423828	3000.109375
1042.285156	2992.972412
1041.146484	2915.582764
1040.007812	2868.952393
1038.868164	2894.762695
1037.728516	2938.117676
1036.589844	2946.354980
1035.449219	2917.300049
1034.309570	2984.750488
1033.169922	2999.552002
1032.029297	3018.732666
1030.888672	2908.586914
1029.748047	3008.860596
1028.606445	2973.252197
1027.465820	2968.325928
1026.324219	2948.069824
1025.182617	2844.606689
1024.041016	2887.874023
1022.898438	2907.045898
1021.756836	2860.551514
1020.614258	2881.909424
1019.471680	2806.994385
1018.328125	2904.914307
1017.185547	2924.064941
1016.041992	2978.194580
1014.898438	2879.267822
1013.754883	2902.783936
1012.610352	2987.483154
1011.466797	2936.679443
1010.322266	2931.771484
1009.177734	2878.812012
1008.033203	2921.960449
1006.887695	2910.507080
1005.742188	2846.665283
1004.597656	2854.873291
1003.451172	2865.260498
1002.305664	2840.734619
1001.160156	2859.845947
1000.013672	2824.424805
998.867188	2891.505615
997.720703	2906.236328
996.573242	2923.141357
995.426758	2767.865723
994.279297	2937.321289
993.131836	2904.102539
991.983398	2938.420654
990.835938	2872.546387
989.687500	2941.696289
988.539062	2928.093994
987.390625	2923.202881
986.242188	2885.670166
985.092773	2896.019287
983.944336	2871.557617
982.794922	2912.355469
981.644531	2853.105469
980.495117	2876.497559
979.344727	2930.314697
978.194336	2884.134277
977.043945	2935.756836
975.893555	2848.312256
974.742188	2845.616455
973.591797	2966.715820
972.440430	2883.656250
971.289062	2948.256836
970.136719	2952.056152
968.985352	2858.193359
967.833008	2963.989746
966.680664	2876.667236
965.528320	2949.885498
964.375000	2849.585693
963.221680	2929.286377
962.069336	2883.223145
960.915039	2982.395020
959.761719	2999.182617
958.608398	2940.131592
957.454102	3004.578125
956.299805	2910.894043
955.145508	2880.042236
953.990234	2849.201660
952.834961	2891.970215
951.680664	2962.858398
950.525391	2815.171143
949.369141	2974.748535
948.213867	2963.385742
947.057617	2900.123291
945.901367	2795.801025
944.745117	2894.731934
943.588867	2844.485352
942.431641	2837.478271
941.274414	2936.346680
940.117188	2933.645508
938.959961	2943.904785
937.801758	2891.535156
936.644531	2843.502930
935.486328	2817.075195
934.328125	2855.405273
933.168945	2859.195068
932.010742	2944.967773
930.851562	2890.498047
929.692383	2918.002441
928.533203	2891.589355
927.373047	2813.444336
926.213867	2899.145752
925.053711	2849.044189
923.893555	2816.198486
922.732422	2867.382812
921.572266	2765.620605
920.411133	2898.628662
919.250000	2837.807129
918.088867	2828.673096
916.926758	2864.740967
915.765625	2920.162842
914.603516	2809.896484
913.441406	2858.854492
912.279297	2793.805176
911.116211	2849.198730
909.953125	2827.173828
908.790039	2901.886475
907.626953	2778.849609
906.463867	2829.907227
905.299805	2814.346680
904.135742	2919.077393
902.971680	2899.210938
901.807617	2866.468262
900.643555	2848.765381
899.478516	2796.726562
898.313477	2877.757568
897.148438	2776.384277
895.982422	2904.583008
894.817383	2839.703125
893.651367	2849.900879
892.485352	2862.238770
891.319336	2835.987061
890.152344	2747.592041
888.986328	2770.655762
887.819336	2793.710693
886.652344	2761.064453
885.484375	2874.060791
884.317383	2819.999268
883.149414	2821.619141
881.981445	2771.867920
880.813477	2782.056152
879.644531	2753.726807
878.475586	2828.092041
877.307617	2714.209961
876.137695	2732.954834
874.968750	2779.487305
873.798828	2783.249023
872.629883	2804.107422
871.459961	2756.577881
870.289062	2813.753418
869.119141	2770.511475
867.948242	2710.199951
866.777344	2790.840576
865.606445	2841.562256
864.435547	2821.826416
863.263672	2782.890625
862.092773	2839.986572
860.920898	2807.461426
859.748047	2798.410645
858.576172	2829.881104
857.403320	2756.864746
856.230469	2788.331299
855.057617	2766.501953
853.884766	2759.597168
852.710938	2803.828613
851.538086	2803.310059
850.364258	2836.867920
849.189453	2789.496582
848.015625	2854.979004
846.840820	2745.892334
845.666016	2760.281494
844.491211	2876.800293
843.316406	2861.375977
842.140625	2828.940918
840.965820	2864.570068
839.790039	2836.398682
838.613281	2865.635498
837.437500	2801.341309
836.260742	2764.696777
835.083984	2810.927490
833.907227	2799.785645
832.730469	2924.575684
831.552734	2853.959229
830.375977	2857.676758
829.198242	2795.589355
828.019531	2792.949219
826.841797	2862.454834
825.663086	2881.018311
824.484375	2802.002930
823.305664	2860.864258
822.126953	2853.973145
820.947266	2874.643799
819.767578	2893.187012
818.587891	2801.527100
817.408203	2843.383057
816.228516	2859.802979
815.047852	2816.913330
813.867188	2884.154053
812.686523	2864.564697
811.504883	2821.697510
810.324219	2850.804199
809.142578	2795.259033
807.960938	2917.447021
806.779297	2821.720459
805.596680	2789.474609
804.415039	2871.420654
803.232422	2856.089844
802.048828	2783.695557
800.866211	2812.764893
799.682617	2900.984131
798.500000	2868.758545
797.315430	2904.132080
796.131836	2836.018555
794.948242	2854.494141
793.763672	2788.525879
792.579102	2927.303467
791.394531	2888.777588
790.208984	2816.510010
789.024414	2881.377197
787.838867	2783.830078
786.653320	2753.793457
785.466797	2770.147705
784.281250	2738.016602
783.094727	2804.944824
781.908203	2749.641846
780.721680	2810.223145
779.534180	2881.312744
778.347656	2872.354248
777.160156	2814.973877
775.972656	2829.186523
774.784180	2811.823730
773.596680	2857.595215
772.408203	2783.428711
771.219727	2883.878906
770.031250	2746.641846
768.841797	2786.083008
767.653320	2741.416748
766.463867	2806.066895
765.274414	2834.966797
764.083984	2792.416992
762.894531	2844.416748
761.704102	2761.974121
760.513672	2820.259766
759.322266	2777.743896
758.131836	2850.698975
756.940430	2732.636230
755.749023	2828.655029
754.557617	2781.972656
753.365234	2800.333984
752.173828	2772.549072
750.981445	2811.873535
749.789062	2668.791260
748.595703	2825.500000
747.403320	2772.582520
746.209961	2759.494873
745.016602	2828.113281
743.823242	2758.468262
742.628906	2753.766846
741.435547	2885.159424
740.241211	2809.262207
739.046875	2754.322754
737.851562	2747.532227
736.657227	2857.906006
735.461914	2813.446777
734.266602	2708.353271
733.070312	2793.580322
731.875000	2795.150879
730.678711	2813.442383
729.482422	2842.176270
728.286133	2699.564697
727.089844	2882.898926
725.892578	2648.431152
724.695312	2886.001709
723.498047	2737.224121
722.300781	2751.326660
721.102539	2828.037354
719.904297	2787.862793
718.706055	2749.789307
717.507812	2743.019287
716.308594	2790.476074
715.110352	2800.381836
713.911133	2822.792480
712.711914	2813.928955
711.511719	2744.632324
710.311523	2842.050781
709.112305	2812.355713
707.912109	2774.340576
706.710938	2798.812744
705.510742	2879.491211
704.309570	2776.952393
703.108398	2830.548096
701.907227	2750.946289
700.705078	2735.869629
699.502930	2910.089600
698.301758	2830.517090
697.098633	2825.830322
695.896484	2781.645264
694.693359	2772.812012
693.491211	2867.891113
692.287109	2771.777588
691.083984	2860.588867
689.880859	2872.517334
688.676758	2732.846924
687.472656	2827.844238
686.268555	2814.861328
685.063477	2837.166016
683.858398	2780.609375
682.654297	2829.883057
681.448242	2908.178467
680.243164	2884.822510
679.037109	2788.901367
677.832031	2819.477783
676.625977	2856.260986
675.418945	2839.148682
674.212891	2801.322754
673.005859	2896.093018
671.798828	2881.053711
670.591797	2799.753418
669.383789	2884.118408
668.176758	2806.987793
666.968750	2907.876953
665.760742	2845.255371
664.551758	2879.895020
663.343750	2811.096191
662.134766	2831.252197
660.925781	2776.962158
659.715820	2780.577881
658.506836	2916.477295
657.296875	2833.269287
656.086914	2770.754150
654.876953	2828.078613
653.666016	2899.839355
652.456055	2806.371094
651.245117	2725.325439
650.034180	2836.285645
648.822266	2806.861084
647.611328	2870.304199
646.399414	2869.767334
645.187500	2788.784912
643.974609	2794.450195
642.762695	2793.927490
641.549805	2774.850830
640.336914	2902.124268
639.124023	2821.210693
637.910156	2781.535400
636.696289	2787.195068
635.483398	2817.567871
634.268555	2800.566650
633.054688	2822.689941
631.839844	2783.050781
630.625000	2899.840576
629.410156	2812.874512
628.195312	2765.029541
626.979492	2795.365967
625.764648	2868.878174
624.548828	2800.487793
623.332031	2865.748291
622.116211	2842.602295
620.899414	2936.600098
619.682617	2841.537598
618.465820	2929.337646
617.248047	2924.681152
616.031250	2985.737305
614.813477	2915.373291
613.595703	2972.302490
612.376953	2918.385498
611.159180	2932.202393
609.940430	3021.920654
608.721680	2922.898926
607.502930	2957.214355
606.283203	2930.005127
605.063477	2892.555908
603.843750	2883.815186
602.624023	2815.649902
601.403320	2862.245605
600.183594	2810.497314
598.962891	2832.499268
597.742188	2815.586670
596.520508	2808.916748
595.299805	2839.093994
594.078125	2783.304688
592.856445	2696.843994
591.633789	2767.940430
590.412109	2822.646973
589.189453	2783.262207
587.966797	2837.945068
586.743164	2784.262207
585.520508	2798.046875
584.296875	2875.174072
583.073242	2780.652344
581.849609	2820.984619
580.625000	2765.312500
579.401367	2842.387207
578.176758	2794.897949
576.952148	2782.126221
575.726562	2895.888428
574.500977	2899.425781
573.276367	2829.520508
572.049805	2751.482666
570.824219	2720.376953
569.598633	2693.360840
568.372070	2804.972412
567.145508	2814.636230
565.917969	2795.767822
564.691406	2856.363281
563.463867	2839.531006
562.236328	2824.741455
561.008789	2797.740234
559.780273	2772.784912
558.552734	2833.326904
557.324219	2845.004883
556.094727	2824.123535
554.866211	2774.770020
553.636719	2780.350098
552.407227	2722.888916
551.177734	2819.968018
549.948242	2774.717285
548.717773	2782.325195
547.488281	2763.514160
546.256836	2830.037842
545.026367	2723.881592
543.795898	2788.356689
542.564453	2686.308838
541.333008	2779.187744
540.100586	2870.001709
538.869141	2715.233398
537.636719	2692.404297
536.404297	2799.411621
535.171875	2667.053467
533.939453	2828.775391
532.706055	2674.159668
531.472656	2677.710449
530.239258	2715.713135
529.004883	2765.858887
527.771484	2769.390137
526.537109	2734.435303
525.302734	2814.925537
524.067383	2703.034912
522.833008	2688.355469
521.597656	2776.904541
520.362305	2695.437744
519.126953	2747.533936
517.890625	2655.988770
516.654297	2677.735840
515.417969	2786.423828
514.181641	2763.660400
512.944336	2771.225098
511.708008	2732.305420
510.470703	2756.037354
509.233398	2739.356689
507.995117	2827.711670
506.756836	2722.169434
505.518555	2747.904053
504.280273	2846.300293
503.041992	2668.156006
501.802734	2798.816162
500.563477	2822.498779
499.324219	2813.898193
498.084961	2819.418213
496.844727	2744.281006
495.604492	2790.131348
494.364258	2797.667969
493.124023	2752.805420
491.882812	2790.568359
490.642578	2777.955566
489.401367	2765.347168
488.159180	2843.360352
486.917969	2746.184082
485.675781	2697.355225
484.433594	2773.324219
483.191406	2730.545166
481.948242	2687.781982
480.705078	2771.755127
479.462891	2696.823242
478.218750	2792.826660
476.975586	2697.815918
475.731445	2697.306641
474.487305	2775.169678
473.243164	2617.931641
471.999023	2635.516357
470.753906	2741.464111
469.508789	2799.179199
468.263672	2758.498047
467.018555	2667.650391
465.772461	2693.236084
464.526367	2815.124268
463.280273	2700.243652
462.034180	2687.699219
460.787109	2687.191650
459.540039	2704.729004
458.292969	2728.273438
457.045898	2687.673584
455.797852	2667.127197
454.550781	2676.640869
453.302734	2666.119629
452.053711	2755.738037
450.805664	2719.175293
449.556641	2688.632080
448.307617	2678.115967
447.058594	2685.614746
445.808594	2695.111328
444.559570	2664.595215
443.309570	2588.088867
442.059570	2629.593018
440.808594	2719.064941
439.557617	2600.613770
438.307617	2626.103271
437.055664	2675.561279
435.804688	2730.993652
434.552734	2752.448730
433.300781	2773.895752
432.048828	2719.460938
430.796875	2643.087646
429.543945	2766.334229
428.291016	2664.038574
427.038086	2705.432861
425.785156	2684.973145
424.531250	2736.319580
423.278320	2717.855713
422.023438	2713.354004
420.769531	2806.524170
419.515625	2802.007080
418.260742	2889.147461
417.005859	2856.726318
415.750000	2921.913818
414.495117	2965.170898
413.239258	2924.789551
411.983398	3083.486084
410.727539	2961.496826
409.470703	3020.632324
408.214844	2904.669189
406.958008	2860.358398
405.700195	2865.782959
404.443359	2763.833252
403.185547	2683.790039
401.927734	2699.182373
400.669922	2658.926270
399.411133	2688.225342
398.153320	2699.635010
396.894531	2601.803955
395.635742	2764.141113
394.375977	2654.422607
393.116211	2522.910889
391.857422	2625.632080
390.596680	2621.165771
389.336914	2650.426758
388.076172	2626.122559
386.815430	2629.590820
385.554688	2635.040527
384.293945	2632.558350
383.032227	2620.167480
381.770508	2591.928223
380.508789	2605.305176
379.247070	2626.600342
377.984375	2691.457520
376.721680	2580.061768
375.458984	2595.409912
374.196289	2646.380371
372.932617	2537.035156
371.668945	2619.654541
370.405273	2569.702148
369.141602	2644.372314
367.876953	2610.253662
366.613281	2554.399658
365.347656	2571.705322
364.083008	2569.240723
362.818359	2635.935791
361.552734	2593.947998
360.287109	2623.083740
359.020508	2563.340576
357.754883	2509.543213
356.488281	2584.082031
355.221680	2599.381104
353.955078	2577.180664
352.687500	2562.880371
351.419922	2526.886963
350.152344	2534.295898
348.884766	2510.152344
347.616211	2624.020508
346.348633	2562.417969
345.080078	2538.282471
343.810547	2545.681641
342.541992	2582.627197
341.272461	2631.376221
340.002930	2500.907715
338.733398	2482.712646
337.462891	2606.254395
336.193359	2532.939453
334.922852	2601.328125
333.651367	2559.519287
332.380859	2564.933350
331.109375	2591.978027
329.837891	2530.532227
328.566406	2561.504639
327.293945	2504.018555
326.022461	2523.193359
324.750000	2552.184326
323.477539	2412.229492
322.204102	2486.401855
320.930664	2525.201172
319.657227	2622.882324
318.383789	2477.131592
317.110352	2582.634521
315.835938	2692.021484
314.561523	2569.881104
313.287109	2534.087402
312.011719	2663.030762
310.737305	2644.878174
309.461914	2562.044189
308.185547	2712.466797
306.910156	2704.112305
305.633789	2709.474854
304.357422	2848.030518
303.081055	2876.864014
301.804688	2950.720459
300.527344	3034.336914
299.250000	3139.451172
297.972656	3131.025635
296.694336	3126.516113
295.416992	3333.271973
294.138672	3420.646484
292.860352	3605.757812
291.581055	3440.848389
290.301758	3123.538574
289.022461	3003.732178
287.743164	2790.183594
286.463867	2750.580811
285.183594	2605.522461
283.903320	2569.875488
282.623047	2583.052490
281.342773	2531.806641
280.061523	2505.952148
278.780273	2524.987549
277.499023	2549.868164
276.216797	2500.617920
274.935547	2488.439697
273.653320	2431.420410
272.370117	2425.108398
271.087891	2477.270752
269.804688	2541.105225
268.521484	2392.547607
267.238281	2452.477783
265.955078	2383.844238
264.670898	2432.069824
263.386719	2441.339844
262.102539	2444.766846
260.817383	2477.383789
259.533203	2356.275879
258.248047	2421.968262
256.962891	2376.771240
255.676758	2407.431396
254.390625	2393.362061
253.104492	2389.017334
251.818359	2386.617676
250.532227	2461.943848
249.245117	2422.618652
247.958008	2542.583740
246.670898	2435.287354
245.382812	2473.655029
244.095703	2467.358643
242.807617	2383.428467
241.518555	2447.010742
240.230469	2415.500732
238.941406	2444.135986
237.652344	2505.730225
236.363281	2398.603760
235.074219	2398.145264
233.784180	2457.774414
232.494141	2470.870361
231.204102	2575.026611
229.913086	2737.258789
228.622070	2914.923584
227.331055	3171.914795
226.040039	3260.368408
224.749023	2899.701904
223.457031	2723.030762
222.165039	2530.947510
220.873047	2424.060303
219.580078	2350.095703
218.287109	2307.101074
216.994141	2325.994629
215.701172	2331.349121
214.407227	2292.247803
213.114258	2390.360840
211.820312	2372.515381
210.525391	2346.949951
209.231445	2290.493896
207.936523	2251.437256
206.641602	2322.436279
205.346680	2273.737549
204.050781	2302.249268
202.754883	2309.526123
201.458984	2312.942139
200.163086	2270.068115
198.866211	2304.343262
197.569336	2257.631104
196.272461	2220.574707
194.975586	2266.402588
193.677734	2179.260498
192.379883	2296.357910
191.082031	2249.691650
189.784180	2289.700928
188.485352	2258.456543
187.187500	2311.923828
185.887695	2240.269531
184.588867	2257.158447
183.289062	2179.770264
181.989258	2256.293457
180.689453	2257.784180
179.389648	2211.204590
178.088867	2303.056641
176.788086	2225.733154
175.487305	2202.246338
174.186523	2255.620850
172.884766	2264.792969
171.583008	2212.503174
170.281250	2248.562744
168.979492	2202.055420
167.676758	2195.874756
166.374023	2254.945801
165.071289	2198.869873
163.767578	2208.039795
162.463867	2221.042236
161.160156	2189.934082
159.856445	2195.265625
158.552734	2146.922119
157.248047	2194.423096
155.943359	2176.756592
154.638672	2105.454590
153.333008	2147.189697
152.027344	2181.248535
150.721680	2213.379639
149.416016	2119.152832
148.110352	2191.476318
146.803711	2158.524658
145.497070	2129.411865
144.189453	2151.957031
142.882812	2124.769043
141.575195	2162.603271
140.267578	2160.276123
138.959961	2173.240967
137.651367	2165.179443
136.342773	2143.746338
135.034180	2068.833496
133.725586	2049.336914
132.416016	2045.124023
131.106445	2084.823730
129.796875	1994.708862
128.487305	2026.769043
127.176758	1965.321045
125.866211	1930.604492
124.555664	1955.028809
123.244141	1866.932007
121.933594	1862.759766
120.622070	1765.183105
119.309570	1719.102661
117.998047	1650.173584
116.685547	1621.279053
115.373047	1443.822754
114.060547	1344.515625
112.748047	1191.933228
111.434570	1001.335938
110.121094	846.974854
108.806641	679.352478
107.493164	538.430664
106.178711	429.900787
104.864258	355.645905
103.549805	245.291412
102.234375	163.496124
100.918945	127.350380
99.603516	74.115059
