#Wave		#Intensity
1998.943359	953.226318
1997.975586	898.977722
1997.007812	940.146118
1996.039062	996.794373
1995.071289	916.581177
1994.102539	937.073120
1993.133789	874.965332
1992.165039	957.391052
1991.196289	934.003052
1990.227539	871.928162
1989.257812	959.469604
1988.288086	907.726929
1987.318359	951.400085
1986.348633	938.344849
1985.378906	925.294128
1984.409180	932.863647
1983.438477	953.313110
1982.467773	893.897217
1981.497070	932.375610
1980.526367	934.788208
1979.555664	906.303162
1978.584961	908.719299
1977.613281	887.970215
1976.641602	977.883484
1975.669922	954.556519
1974.698242	882.360535
1973.726562	961.939514
1972.753906	943.770630
1971.782227	974.459534
1970.809570	951.153320
1969.836914	958.697998
1968.863281	953.391113
1967.890625	958.363403
1966.917969	919.662781
1965.944336	911.796875
1964.970703	898.797791
1963.997070	924.316345
1963.023438	960.094299
1962.048828	923.993591
1961.075195	877.640686
1960.100586	926.236694
1959.125977	936.336182
1958.151367	910.524109
1957.176758	961.653320
1956.201172	923.025940
1955.226562	979.262024
1954.250977	932.955811
1953.275391	937.918091
1952.299805	950.565125
1951.323242	909.411499
1950.347656	1014.264893
1949.371094	965.432007
1948.394531	962.702942
1947.417969	895.976501
1946.441406	936.771667
1945.464844	908.458557
1944.487305	895.506897
1943.509766	908.141113
1942.532227	946.347839
1941.554688	976.869446
1940.577148	943.460266
1939.599609	925.400879
1938.621094	943.130493
1937.642578	988.963928
1936.664062	996.456116
1935.685547	924.753967
1934.707031	919.484070
1933.727539	929.537964
1932.749023	901.289917
1931.769531	936.871277
1930.790039	939.259827
1929.810547	903.369080
1928.830078	984.857300
1927.850586	1025.500977
1926.870117	959.007324
1925.889648	943.538940
1924.909180	951.022888
1923.928711	940.659668
1922.948242	927.751282
1921.966797	925.040649
1920.985352	917.235168
1920.003906	960.380981
1919.022461	965.306946
1918.041016	909.114197
1917.059570	921.685547
1916.077148	939.343811
1915.094727	949.360229
1914.112305	949.194031
1913.129883	931.217712
1912.147461	918.335449
1911.164062	956.325989
1910.180664	918.013916
1909.197266	902.598083
1908.213867	920.234619
1907.230469	978.531250
1906.247070	978.359924
1905.262695	973.107117
1904.278320	904.348450
1903.294922	960.067017
1902.309570	914.189453
1901.325195	972.425659
1900.340820	987.486511
1899.355469	949.242310
1898.370117	933.850220
1897.384766	936.223816
1896.399414	1012.162292
1895.414062	913.069153
1894.427734	966.162170
1893.442383	958.386658
1892.456055	925.264160
1891.469727	1008.741394
1890.482422	993.360107
1889.496094	1005.854248
1888.508789	957.547302
1887.522461	957.379456
1886.535156	1010.390137
1885.547852	924.129700
1884.559570	949.281921
1883.572266	928.867737
1882.583984	997.029236
1881.595703	946.252686
1880.607422	946.086792
1879.619141	1006.621704
1878.630859	912.881226
1877.641602	889.966309
1876.653320	1006.092285
1875.664062	917.455933
1874.674805	912.241089
1873.684570	975.244568
1872.695312	927.077698
1871.705078	957.222961
1870.715820	972.206299
1869.725586	1017.481628
1868.735352	928.951721
1867.744141	971.694763
1866.753906	900.867981
1865.762695	923.416870
1864.771484	910.642090
1863.780273	963.446655
1862.789062	920.409241
1861.797852	968.151001
1860.805664	932.690125
1859.813477	947.648499
1858.821289	1000.400024
1857.829102	957.393677
1856.836914	932.035461
1855.844727	949.501892
1854.851562	931.708313
1853.858398	951.686218
1852.865234	994.312317
1851.872070	986.587341
1850.878906	988.930481
1849.884766	913.279175
1848.890625	963.428406
1847.897461	970.804321
1846.903320	955.546265
1845.908203	980.519958
1844.914062	955.210632
1843.918945	997.768494
1842.923828	947.336609
1841.929688	967.269287
1840.933594	979.659119
1839.938477	971.952515
1838.943359	991.870239
1837.947266	979.142883
1836.951172	953.869019
1835.955078	971.269592
1834.958984	956.043091
1833.961914	993.507935
1832.965820	945.673401
1831.968750	988.142822
1830.971680	987.969116
1829.974609	942.667786
1828.977539	1032.741577
1827.979492	894.718323
1826.982422	1052.424683
1825.984375	987.101074
1824.986328	931.819885
1823.988281	966.718384
1822.989258	1029.148682
1821.991211	1008.939148
1820.992188	1021.277344
1819.993164	931.000916
1818.994141	920.828186
1817.995117	993.218689
1816.995117	968.030334
1815.996094	937.848877
1814.996094	997.695679
1813.996094	980.019775
1812.996094	1022.340759
1811.996094	1047.152588
1810.995117	934.525452
1809.994141	959.343933
1808.993164	984.153687
1807.992188	1033.928711
1806.991211	966.328491
1805.990234	956.172302
1804.988281	980.964966
1803.986328	963.322754
1802.984375	1015.552673
1801.982422	1007.889587
1800.980469	977.780151
1799.977539	972.620178
1798.975586	1009.850830
1797.972656	1042.082275
1796.969727	944.688171
1795.966797	981.903992
1794.962891	989.206177
1793.959961	971.593140
1792.956055	996.330261
1791.952148	963.779785
1790.948242	1030.838623
1789.943359	988.335388
1788.939453	958.292480
1787.934570	945.680481
1786.929688	972.884033
1785.924805	1032.418823
1784.919922	1027.262329
1783.915039	974.856812
1782.909180	972.198608
1781.903320	969.541260
1780.897461	949.485901
1779.891602	926.952454
1778.885742	919.335022
1777.879883	996.184814
1776.873047	1058.104492
1775.866211	1008.250549
1774.859375	995.658081
1773.852539	1002.930115
1772.844727	1027.573975
1771.837891	995.131653
1770.830078	932.926514
1769.822266	982.377014
1768.814453	964.841614
1767.806641	1024.188477
1766.797852	954.583618
1765.789062	989.121277
1764.781250	1001.339661
1763.772461	988.772400
1762.762695	939.044189
1761.753906	1042.923218
1760.744141	948.620239
1759.735352	990.551270
1758.725586	933.429871
1757.714844	990.201843
1756.705078	918.250122
1755.695312	908.189575
1754.684570	1014.419678
1753.673828	977.134338
1752.663086	981.908508
1751.652344	947.114868
1750.640625	993.924194
1749.629883	1003.636841
1748.618164	1003.459717
1747.606445	943.975220
1746.594727	1025.341797
1745.583008	1010.339172
1744.570312	936.065857
1743.557617	948.247559
1742.545898	987.583496
1741.533203	918.290466
1740.519531	997.107117
1739.506836	1061.089966
1738.493164	917.804077
1737.479492	917.641968
1736.465820	1023.532654
1735.452148	986.363281
1734.438477	993.585449
1733.423828	966.294556
1732.410156	911.902588
1731.395508	1020.164795
1730.380859	983.028625
1729.366211	990.244812
1728.350586	992.532715
1727.334961	994.819763
1726.320312	965.100037
1725.304688	957.544861
1724.288086	962.297852
1723.272461	974.431213
1722.256836	964.417969
1721.240234	1067.559692
1720.223633	1037.858398
1719.207031	968.824524
1718.190430	988.321350
1717.172852	963.565857
1716.155273	1017.463562
1715.138672	1009.912048
1714.121094	1014.647034
1713.102539	1063.594360
1712.084961	1016.744080
1711.066406	1006.742432
1710.048828	1006.564331
1709.030273	1028.477783
1708.011719	1018.479126
1706.992188	927.510864
1705.973633	986.225952
1704.954102	976.240051
1703.934570	978.519775
1702.915039	993.058594
1701.895508	1056.623535
1700.875977	1053.985474
1699.855469	1007.235718
1698.834961	989.905640
1697.814453	1058.325684
1696.793945	1058.138306
1695.773438	1013.869751
1694.751953	1003.896179
1693.730469	1035.543701
1692.709961	1054.941650
1691.687500	1000.915955
1690.666016	978.717590
1689.644531	1042.149658
1688.622070	1061.532593
1687.599609	1049.117188
1686.577148	1012.255432
1685.554688	1024.299316
1684.532227	1007.008606
1683.508789	1009.273987
1682.485352	996.878601
1681.461914	1018.688110
1680.438477	1057.587036
1679.415039	1030.537354
1678.391602	993.730835
1677.367188	1022.848816
1676.342773	1059.278564
1675.318359	1066.411865
1674.293945	1019.865356
1673.268555	1083.109985
1672.244141	1029.259888
1671.218750	1029.077515
1670.193359	1041.085815
1669.167969	1001.898010
1668.141602	1009.032288
1667.116211	1040.532349
1666.089844	1040.347900
1665.063477	1045.035400
1664.037109	1008.316956
1663.010742	1093.367310
1661.983398	1115.085571
1660.957031	1078.374023
1659.929688	1010.035828
1658.902344	1056.091187
1657.875000	1065.635742
1656.846680	1055.716553
1655.819336	1087.146606
1654.791016	1016.435547
1653.762695	970.061829
1652.734375	1018.505737
1651.705078	1054.780640
1650.676758	1057.023438
1649.647461	1015.534302
1648.618164	1105.229980
1647.588867	1090.461914
1646.559570	1116.978882
1645.529297	1041.519287
1644.500000	1131.146606
1643.469727	1089.688110
1642.439453	1087.068237
1641.409180	1106.283813
1640.377930	1127.918091
1639.347656	1166.520996
1638.316406	1105.694702
1637.285156	1120.044434
1636.253906	1083.487061
1635.222656	1085.718140
1634.190430	1133.986328
1633.158203	1090.177856
1632.125977	1119.050537
1631.093750	1145.491089
1630.061523	1152.551636
1629.029297	1116.033447
1627.996094	1193.290161
1626.962891	1180.978027
1625.929688	1226.740845
1624.896484	1221.684570
1623.863281	1223.886230
1622.829102	1199.485596
1621.794922	1250.048096
1620.760742	1165.214966
1619.726562	1198.846313
1618.692383	1205.883057
1617.657227	1297.483276
1616.622070	1297.252686
1615.587891	1268.038452
1614.551758	1270.227905
1613.516602	1289.317749
1612.481445	1250.464233
1611.445312	1279.205078
1610.409180	1336.893555
1609.373047	1261.861084
1608.336914	1239.925903
1607.300781	1259.000488
1606.263672	1278.068237
1605.226562	1265.785889
1604.189453	1258.328979
1603.152344	1255.695068
1602.115234	1284.388550
1601.077148	1267.294922
1600.039062	1336.927002
1599.000977	1288.520142
1597.962891	1230.498413
1596.924805	1225.464355
1595.885742	1239.689331
1594.847656	1302.043823
1593.808594	1335.500488
1592.769531	1294.362915
1591.730469	1277.294434
1590.690430	1267.447021
1589.651367	1322.527100
1588.611328	1242.954224
1587.571289	1228.310547
1586.531250	1278.561523
1585.490234	1215.858887
1584.450195	1242.069458
1583.409180	1280.280884
1582.368164	1222.414551
1581.327148	1236.603882
1580.285156	1248.387451
1579.244141	1231.362915
1578.202148	1247.942871
1577.160156	1175.736694
1576.118164	1204.315796
1575.076172	1249.674805
1574.033203	1251.850464
1572.991211	1198.876831
1571.948242	1253.801880
1570.905273	1217.625000
1569.862305	1188.650391
1568.818359	1205.210938
1567.775391	1193.018066
1566.731445	1221.547852
1565.687500	1221.330200
1564.643555	1161.254028
1563.598633	1158.653198
1562.554688	1237.431763
1561.509766	1232.425049
1560.464844	1189.138062
1559.419922	1196.102661
1558.374023	1270.034546
1557.329102	1205.241699
1556.283203	1224.154175
1555.237305	1190.468994
1554.191406	1152.015503
1553.145508	1168.537598
1552.098633	1175.496948
1551.052734	1165.732178
1550.005859	1170.301025
1548.958984	1091.290161
1547.912109	1181.821167
1546.864258	1136.255615
1545.816406	1202.879639
1544.769531	1207.437500
1543.721680	1154.734131
1542.672852	1130.674316
1541.625000	1140.012451
1540.576172	1104.040894
1539.528320	1182.519653
1538.479492	1117.949097
1537.430664	1101.066772
1536.380859	1084.190430
1535.332031	1172.146118
1534.282227	1152.880981
1533.232422	1169.346191
1532.182617	1076.273193
1531.132812	1109.411011
1530.082031	1052.086060
1529.031250	1063.797485
1527.981445	1134.990723
1526.929688	1149.062134
1525.878906	1110.799561
1524.828125	1105.844849
1523.776367	1077.114502
1522.724609	1105.449951
1521.672852	1129.021362
1520.621094	1095.549194
1519.569336	1159.506592
1518.516602	1159.299438
1517.463867	1113.963745
1516.411133	1128.013306
1515.358398	1080.324951
1514.305664	1158.471191
1513.251953	1215.228027
1512.198242	1101.103638
1511.144531	1127.005981
1510.090820	1133.921143
1509.037109	1062.564697
1507.982422	1143.001465
1506.927734	1135.684326
1505.873047	1095.182373
1504.818359	1151.869019
1503.763672	1135.075317
1502.708984	1165.672729
1501.653320	1106.243530
1500.597656	1129.729858
1499.541992	1041.912476
1498.486328	1091.444946
1497.429688	1095.984009
1496.373047	1117.088379
1495.317383	1102.690918
1494.260742	1083.566772
1493.203125	1185.087036
1492.146484	1123.384521
1491.088867	1080.620728
1490.031250	1144.260132
1488.973633	1110.962891
1487.916016	1094.220825
1486.858398	1174.363892
1485.799805	1157.616333
1484.741211	1079.461182
1483.682617	1166.648682
1482.624023	1204.219238
1481.565430	1107.211304
1480.505859	1097.571655
1479.446289	1132.774414
1478.386719	1038.190674
1477.327148	1099.341431
1476.267578	1101.503296
1475.207031	1127.246948
1474.147461	1065.741455
1473.086914	1143.345215
1472.026367	1117.213623
1470.964844	1133.509521
1469.904297	1079.115112
1468.842773	1064.787476
1467.781250	1180.006592
1466.719727	1123.278198
1465.658203	1139.558105
1464.595703	1115.813721
1463.533203	1113.260132
1462.471680	1077.762817
1461.409180	1157.563965
1460.345703	1089.138428
1459.283203	1133.629883
1458.219727	1145.184326
1457.156250	1116.765991
1456.092773	1097.760620
1455.029297	1118.716064
1453.965820	1149.063232
1452.901367	1123.013794
1451.836914	1104.020752
1450.772461	1216.553589
1449.708008	1105.973022
1448.642578	1101.079346
1447.578125	1096.187378
1446.512695	1093.643921
1445.447266	1055.904541
1444.381836	1109.673950
1443.315430	1104.783691
1442.250000	1160.870239
1441.183594	1134.869507
1440.117188	1080.745850
1439.050781	1150.869995
1437.983398	1092.075806
1436.916992	1134.055420
1435.849609	1124.481323
1434.782227	1157.071045
1433.714844	1184.965454
1432.647461	1123.876221
1431.579102	1093.241699
1430.510742	1060.277466
1429.442383	1106.890259
1428.374023	1064.576416
1427.305664	1085.439209
1426.236328	1087.583252
1425.167969	1194.957520
1424.098633	1171.362549
1423.028320	1131.412598
1421.958984	1114.848999
1420.889648	1119.322388
1419.819336	1126.130493
1418.749023	1128.264282
1417.678711	1165.430176
1416.608398	1125.523926
1415.537109	1183.689209
1414.465820	1160.133789
1413.395508	1145.922363
1412.323242	1201.718994
1411.251953	1124.513550
1410.180664	1142.972290
1409.108398	1201.071411
1408.036133	1163.547485
1406.963867	1142.356445
1405.891602	1207.416870
1404.818359	1148.937378
1403.746094	1190.672363
1402.672852	1183.469482
1401.599609	1236.829346
1400.525391	1217.976440
1399.452148	1180.503052
1398.377930	1163.994873
1397.303711	1149.820190
1396.229492	1196.156616
1395.155273	1184.307861
1394.081055	1179.442261
1393.005859	1174.578491
1391.930664	1185.994629
1390.855469	1220.657227
1389.780273	1120.478149
1388.704102	1243.460571
1387.628906	1164.227417
1386.552734	1194.222046
1385.476562	1249.758545
1384.400391	1223.985718
1383.323242	1221.443359
1382.247070	1242.119141
1381.169922	1209.397461
1380.092773	1216.142456
1379.014648	1204.321289
1377.937500	1118.262817
1376.859375	1241.001953
1375.782227	1192.075195
1374.704102	1212.729858
1373.625000	1251.923950
1372.546875	1207.657349
1371.467773	1221.345215
1370.388672	1184.051392
1369.309570	1202.371826
1368.230469	1218.369385
1367.151367	1273.731079
1366.071289	1245.716187
1364.991211	1224.656494
1363.911133	1217.492188
1362.831055	1275.128052
1361.750977	1256.388062
1360.669922	1263.101929
1359.588867	1214.302368
1358.507812	1325.085571
1357.426758	1179.182983
1356.345703	1250.633545
1355.263672	1224.984009
1354.181641	1266.359009
1353.099609	1296.166870
1352.017578	1194.291504
1350.935547	1286.461304
1349.852539	1235.426880
1348.769531	1276.762451
1347.686523	1271.915527
1346.603516	1250.914673
1345.520508	1299.147583
1344.436523	1305.834839
1343.352539	1275.612183
1342.268555	1363.021484
1341.184570	1275.152222
1340.100586	1291.060547
1339.015625	1233.201538
1337.930664	1242.197754
1336.845703	1322.621338
1335.760742	1287.825806
1334.675781	1241.525757
1333.589844	1335.723755
1332.503906	1271.011230
1331.417969	1275.386230
1330.332031	1279.759521
1329.246094	1360.074585
1328.159180	1346.023804
1327.072266	1272.165649
1325.985352	1251.235474
1324.898438	1324.598511
1323.811523	1324.359497
1322.723633	1271.247559
1321.635742	1319.284668
1320.547852	1222.531006
1319.459961	1247.583618
1318.371094	1265.735718
1317.283203	1274.694214
1316.194336	1281.353149
1315.105469	1271.938110
1314.016602	1237.275879
1312.926758	1216.396729
1311.837891	1225.355713
1310.748047	1250.371338
1309.658203	1220.325562
1308.568359	1293.494995
1307.477539	1281.796265
1306.387695	1171.519775
1305.296875	1196.522217
1304.206055	1249.016968
1303.114258	1262.539429
1302.023438	1246.274780
1300.931641	1284.988647
1299.840820	1197.731934
1298.748047	1270.786011
1297.656250	1252.242065
1296.564453	1203.949341
1295.471680	1203.731812
1294.378906	1221.818604
1293.286133	1283.364014
1292.193359	1223.664185
1291.099609	1246.311157
1290.006836	1239.226562
1288.913086	1168.137085
1287.819336	1188.496094
1286.725586	1188.281128
1285.630859	1188.066284
1284.536133	1187.851440
1283.442383	1208.191895
1282.346680	1180.571411
1281.251953	1216.887329
1280.157227	1182.427002
1279.061523	1157.108276
1277.965820	1156.898926
1276.870117	1216.007080
1275.774414	1188.414795
1274.677734	1215.567139
1273.581055	1187.984741
1272.485352	1130.775146
1271.387695	1112.335449
1270.291016	1164.550293
1269.194336	1152.946777
1268.096680	1200.579102
1266.999023	1184.417725
1265.901367	1115.883911
1264.803711	1197.650391
1263.705078	1122.309326
1262.606445	1094.793335
1261.507812	1142.384033
1260.409180	1092.121582
1259.310547	1132.870972
1258.210938	1164.507935
1257.111328	1148.378906
1256.011719	1152.718140
1254.912109	1070.674438
1253.812500	1131.845581
1252.711914	1068.014160
1251.612305	1131.435547
1250.511719	1099.428955
1249.410156	1144.652466
1248.309570	1117.196411
1247.208008	1123.804932
1246.107422	1082.743042
1245.005859	1127.936646
1243.903320	1066.467163
1242.801758	1093.497925
1241.699219	1172.688721
1240.597656	1068.155273
1239.495117	1074.763916
1238.391602	1117.642578
1237.289062	1094.773926
1236.185547	1044.718994
1235.082031	1103.440063
1233.978516	1150.812988
1232.875000	1091.715210
1231.771484	1116.427368
1230.666992	1025.658936
1229.562500	1079.802612
1228.458008	1066.026855
1227.353516	1086.199829
1226.248047	1018.127563
1225.143555	1079.019531
1224.038086	1072.038696
1222.931641	1028.880005
1221.826172	987.997742
1220.720703	1060.153076
1219.614258	1082.561157
1218.507812	1019.094910
1217.401367	1048.279907
1216.294922	1057.124878
1215.187500	986.922546
1214.080078	1090.611084
1212.972656	1054.291870
1211.865234	1022.500000
1210.757812	1031.341431
1209.649414	1067.255859
1208.541016	1085.109741
1207.432617	1024.013184
1206.324219	1050.888794
1205.215820	1048.443237
1204.106445	1079.813232
1202.997070	1088.632690
1201.887695	1063.646606
1200.778320	1013.885681
1199.668945	1040.733521
1198.558594	1024.778687
1197.448242	990.814758
1196.337891	1067.183838
1195.227539	1037.726440
1194.117188	1084.801025
1193.005859	1005.846375
1191.894531	1061.908813
1190.783203	1070.713379
1189.671875	1043.531006
1188.559570	1052.335571
1187.447266	1025.166260
1186.334961	1002.502319
1185.222656	995.578003
1184.110352	1020.113464
1182.998047	1028.914185
1181.884766	1030.973267
1180.771484	1044.260132
1179.658203	1046.315552
1178.543945	1046.125244
1177.430664	1032.468018
1176.316406	1012.083496
1175.202148	1067.991455
1174.087891	1009.472107
1172.972656	1027.231445
1171.858398	1006.862427
1170.743164	1020.131592
1169.627930	984.079773
1168.512695	972.694580
1167.396484	1015.093262
1166.281250	996.985229
1165.165039	1001.283813
1164.048828	1050.372803
1162.931641	989.723450
1161.815430	1014.169983
1160.698242	944.595642
1159.581055	1000.372986
1158.463867	1024.804077
1157.346680	1051.463379
1156.228516	1035.614746
1155.111328	1030.953491
1153.993164	1026.293945
1152.875000	999.280701
1151.755859	1025.920166
1150.637695	981.039124
1149.518555	969.688904
1148.399414	1032.061523
1147.280273	1022.939575
1146.160156	1004.888550
1145.041016	908.700317
1143.920898	966.573853
1142.800781	990.948242
1141.680664	943.907104
1140.559570	934.810913
1139.439453	927.948608
1138.318359	1021.449585
1137.197266	963.287781
1136.075195	1007.700745
1134.954102	951.791565
1133.832031	933.789185
1132.709961	942.531799
1131.587891	942.359985
1130.465820	928.823853
1129.342773	946.470459
1128.220703	977.470032
1127.097656	992.875061
1125.974609	959.307434
1124.850586	932.428101
1123.727539	956.732605
1122.603516	987.701904
1121.479492	949.711243
1120.355469	956.209229
1119.230469	993.831543
1118.106445	949.191650
1116.981445	984.578918
1115.856445	948.845337
1114.730469	946.450500
1113.605469	872.974609
1112.479492	917.233398
1111.353516	943.711975
1110.227539	963.520630
1109.101562	965.564453
1107.974609	965.388245
1106.848633	931.928833
1105.721680	947.288086
1104.594727	951.551270
1103.466797	929.200928
1102.339844	957.855652
1101.211914	917.777405
1100.083984	928.692078
1098.956055	983.923584
1097.827148	957.156250
1096.699219	961.411926
1095.570312	936.873169
1094.441406	956.631897
1093.311523	947.601074
1092.182617	929.719055
1091.052734	945.041687
1089.922852	966.997131
1088.792969	957.970825
1087.663086	964.431824
1086.532227	922.235291
1085.402344	902.166016
1084.271484	961.692444
1083.139648	970.358215
1082.008789	959.130981
1080.876953	947.907776
1079.746094	967.617065
1078.614258	951.978821
1077.481445	927.512756
1076.349609	1024.493408
1075.216797	911.720764
1074.083984	927.004150
1072.951172	970.969604
1071.818359	858.268433
1070.685547	935.319458
1069.551758	862.365601
1068.417969	884.259277
1067.284180	884.097534
1066.149414	908.183411
1065.015625	967.523254
1063.880859	947.514587
1062.746094	918.700684
1061.611328	997.830383
1060.476562	922.769165
1059.340820	920.398376
1058.205078	911.423950
1057.069336	937.670410
1055.933594	926.495239
1054.796875	939.527466
1053.661133	943.755310
1052.524414	910.590149
1051.387695	897.228943
1050.250000	938.839722
1049.113281	927.676453
1047.975586	945.089661
1046.837891	962.496399
1045.700195	938.152344
1044.561523	955.553955
1043.423828	893.883301
1042.285156	904.698914
1041.146484	968.201843
1040.007812	959.244202
1038.868164	855.919250
1037.728516	932.561646
1036.589844	923.615356
1035.449219	914.672302
1034.309570	962.751953
1033.169922	914.337158
1032.029297	931.707642
1030.888672	900.850952
1029.748047	983.960938
1028.606445	898.329712
1027.465820	863.114746
1026.324219	924.283386
1025.182617	902.215515
1024.041016	886.723999
1022.898438	917.208008
1021.756836	899.530762
1020.614258	927.812927
1019.471680	910.140076
1018.328125	927.472656
1017.185547	918.554443
1016.041992	870.280029
1014.898438	953.197266
1013.754883	948.650757
1012.610352	974.701904
1011.466797	869.641663
1010.322266	880.405273
1009.177734	884.612183
1008.033203	877.898438
1006.887695	875.553894
1005.742188	877.576294
1004.597656	864.319458
1003.451172	920.898682
1002.305664	890.184143
1001.160156	907.472107
1000.013672	883.314331
998.867188	891.874634
997.720703	906.972473
996.573242	970.020813
995.426758	887.024658
994.279297	884.682800
993.131836	906.306580
991.983398	908.318359
990.835938	884.195496
989.687500	894.920227
988.539062	881.693726
987.390625	931.594055
986.242188	857.431396
985.092773	868.153015
983.944336	885.396912
982.794922	885.234253
981.644531	950.310242
980.495117	928.393433
979.344727	965.177856
978.194336	899.797729
977.043945	908.324463
975.893555	875.568115
974.742188	953.607361
973.591797	888.277283
972.440430	875.085388
971.289062	872.753479
970.136719	846.545532
968.985352	876.773071
967.833008	911.329163
966.680664	919.839355
965.528320	937.022461
964.375000	915.163757
963.221680	930.173096
962.069336	916.994995
960.915039	905.989136
959.761719	899.321411
958.608398	907.822510
957.454102	894.658081
956.299805	896.659302
955.145508	894.328857
953.990234	874.678894
952.834961	935.128113
951.680664	880.849731
950.525391	891.506897
949.369141	915.140808
948.213867	951.744324
947.057617	960.219788
945.901367	927.609131
944.745117	931.762085
943.588867	892.684204
942.431641	879.553467
941.274414	926.926208
940.117188	881.389832
938.959961	842.349854
937.801758	906.978943
936.644531	908.970947
935.486328	910.962219
934.328125	934.535522
933.168945	899.837280
932.010742	897.513977
930.851562	957.747131
929.692383	899.340027
928.533203	909.955811
927.373047	920.567627
926.213867	855.732971
925.053711	911.607971
923.893555	889.892883
922.732422	889.728882
921.572266	885.257080
920.411133	913.089539
919.250000	925.839966
918.088867	940.738281
916.926758	875.995178
915.765625	910.264465
914.603516	901.490540
913.441406	933.591309
912.279297	924.816162
911.116211	888.089844
909.953125	909.425476
908.790039	896.360474
907.626953	894.046021
906.463867	930.409851
905.299805	882.974426
904.135742	927.918640
902.971680	882.648621
901.807617	873.897095
900.643555	871.589050
899.478516	927.234009
898.313477	864.829468
897.148438	903.290344
895.982422	898.833252
894.817383	937.273621
893.651367	907.079041
892.485352	866.175659
891.319336	923.893005
890.152344	850.853394
888.986328	936.408752
887.819336	859.108887
886.652344	888.938538
885.484375	888.774353
884.317383	942.140991
883.149414	894.868591
881.981445	860.456299
880.813477	843.177002
879.644531	920.048584
878.475586	902.764587
877.307617	855.542969
876.137695	904.569519
874.968750	897.988159
873.798828	891.409241
872.629883	886.969971
871.459961	878.258484
870.289062	884.505676
869.119141	927.064026
867.948242	909.807068
866.777344	896.827087
865.606445	875.312195
864.435547	879.419434
863.263672	898.463867
862.092773	940.972229
860.920898	930.131592
859.748047	887.300903
858.576172	855.148743
857.403320	886.972778
856.230469	897.467468
855.057617	850.411621
853.884766	918.445129
852.710938	914.014099
851.538086	854.200073
850.364258	915.805664
849.189453	936.930115
848.015625	875.015991
846.840820	857.825256
845.666016	864.051147
844.491211	887.297119
843.316406	942.445740
842.140625	882.714661
840.965820	888.931152
839.790039	871.756714
838.613281	933.244751
837.437500	892.688477
836.260742	830.896545
835.083984	858.363342
833.907227	938.926575
832.730469	911.142334
831.552734	860.010010
830.375977	932.035767
829.198242	955.212769
828.019531	884.999878
826.841797	910.298828
825.663086	882.550476
824.484375	912.082703
823.305664	952.207581
822.126953	915.985413
820.947266	943.375000
819.767578	911.406921
818.587891	936.667908
817.408203	921.662903
816.228516	953.267700
815.047852	934.029175
813.867188	880.916382
812.686523	937.917297
811.504883	918.692200
810.324219	884.659302
809.142578	922.583618
807.960938	930.875061
806.779297	930.702393
805.596680	875.543945
804.415039	896.526062
803.232422	915.386292
802.048828	875.056885
800.866211	910.820190
799.682617	923.328491
798.500000	923.157227
797.315430	922.985962
796.131836	927.038086
794.948242	914.198181
793.763672	882.364746
792.579102	886.422058
791.394531	867.266357
790.208984	879.763855
789.024414	961.865356
787.838867	917.398560
786.653320	915.119690
785.466797	908.625305
784.281250	897.917664
783.094727	899.858337
781.908203	967.115417
780.721680	926.910156
779.534180	886.719788
778.347656	882.343445
777.160156	934.815613
775.972656	913.591492
774.784180	877.642578
773.596680	885.896606
772.408203	953.056091
771.219727	946.568542
770.031250	876.990540
768.841797	931.497925
767.653320	872.460022
766.463867	901.724854
765.274414	920.471069
764.083984	890.883972
762.894531	920.128906
761.704102	924.158630
760.513672	860.987732
759.322266	907.018372
758.131836	923.643311
756.940430	873.100403
755.749023	896.020508
754.557617	862.285645
753.365234	912.468384
752.173828	868.256653
750.981445	889.063660
749.789062	958.081421
748.595703	920.173950
747.403320	940.959595
746.209961	919.831665
745.016602	904.996216
743.823242	942.528992
742.628906	885.812439
741.435547	940.084534
740.241211	812.215881
739.046875	866.481445
737.851562	950.022583
736.657227	968.675354
735.461914	916.200500
734.266602	932.761047
733.070312	930.496399
731.875000	894.782776
730.678711	911.337952
729.482422	927.886963
728.286133	948.608643
727.089844	908.739868
725.892578	889.772644
724.695312	923.019409
723.498047	874.825989
722.300781	897.625549
721.102539	864.064575
719.904297	941.112366
718.706055	930.505371
717.507812	936.589844
716.308594	940.586426
715.110352	907.048462
713.911133	915.218567
712.711914	971.326599
711.511719	944.053528
710.311523	889.703552
709.112305	887.454529
707.912109	897.703247
706.710938	916.277954
705.510742	886.958252
704.309570	903.446289
703.108398	909.521729
701.907227	944.727356
700.705078	925.826599
699.502930	925.653931
698.301758	935.879944
697.098633	858.769653
695.896484	939.688782
694.693359	918.727844
693.491211	912.321899
692.287109	910.073853
691.083984	957.684448
689.880859	930.504517
688.676758	909.564575
687.472656	932.233521
686.268555	915.452698
685.063477	909.055420
683.858398	981.513611
682.654297	935.687134
681.448242	945.883972
680.243164	885.563721
679.037109	968.339722
677.832031	901.818298
676.625977	874.704041
675.418945	936.711853
674.212891	969.688660
673.005859	940.505188
671.798828	896.834106
670.591797	954.649658
669.383789	929.626099
668.176758	885.981445
666.968750	956.184448
665.760742	929.105225
664.551758	943.413879
663.343750	939.100586
662.134766	916.175842
660.925781	916.004639
659.715820	913.766113
658.506836	923.930115
657.296875	954.755981
656.086914	933.915649
654.876953	908.951477
653.666016	919.108643
652.456055	898.286560
651.245117	970.380981
650.034180	933.042969
648.822266	941.124023
647.611328	945.074951
646.399414	932.519653
645.187500	919.968994
643.974609	944.544800
642.762695	886.633850
641.549805	886.467957
640.336914	906.913818
639.124023	892.318665
637.910156	939.540833
636.696289	992.925354
635.483398	980.381775
634.268555	969.902100
633.054688	903.837219
631.839844	909.843506
630.625000	950.834900
629.410156	923.906799
628.195312	884.644897
626.979492	942.073303
625.764648	970.688538
624.548828	941.720581
623.332031	912.763428
622.116211	968.087952
620.899414	941.191650
619.682617	881.431458
618.465820	924.405273
617.248047	897.532104
616.031250	907.631287
614.813477	946.469788
613.595703	950.397827
612.376953	927.644348
611.159180	958.249451
609.940430	914.987549
608.721680	941.481140
607.502930	918.746216
606.283203	930.876343
605.063477	965.551941
603.843750	895.683899
602.624023	967.239258
601.403320	956.813660
600.183594	934.101135
598.962891	948.262573
597.742188	960.370972
596.520508	923.339233
595.299805	947.729248
594.078125	955.737732
592.856445	955.558472
591.633789	975.837097
590.412109	953.154663
589.189453	899.805542
587.966797	948.707825
586.743164	944.441406
585.520508	954.483521
584.296875	940.000061
583.073242	950.039124
581.849609	900.835815
580.625000	888.412781
579.401367	920.917175
578.176758	883.996216
576.952148	924.653870
575.726562	910.194702
574.500977	967.155396
573.276367	940.453430
572.049805	940.276855
570.824219	940.100281
569.598633	897.107300
568.372070	937.708801
567.145508	913.075317
565.917969	935.318848
564.691406	924.956421
563.463867	969.595947
562.236328	887.950500
561.008789	952.942078
559.780273	914.082520
558.552734	936.300598
557.324219	956.475159
556.094727	966.468811
554.866211	927.635681
553.636719	972.207336
552.407227	963.890503
551.177734	892.549377
549.948242	939.135071
548.717773	932.861389
547.488281	906.270081
546.256836	952.826782
545.026367	981.084900
543.795898	934.190857
542.564453	942.137085
541.333008	952.110352
540.100586	966.139221
538.869141	978.133423
537.636719	894.762878
536.404297	904.737366
535.171875	914.708069
533.939453	930.758362
532.706055	960.994446
531.472656	926.354065
530.239258	966.712769
529.004883	966.530884
527.771484	893.416992
526.537109	877.044800
525.302734	864.728943
524.067383	905.061096
522.833008	965.621643
521.597656	926.984192
520.362305	878.243225
519.126953	912.472656
517.890625	918.369324
516.654297	968.757874
515.417969	913.979370
514.181641	956.262878
512.944336	952.040161
511.708008	980.153931
510.470703	955.722656
509.233398	947.461914
507.995117	947.283386
506.756836	949.124390
505.518555	940.869385
504.280273	914.449646
503.041992	916.295593
501.802734	906.033447
500.563477	958.317993
499.324219	919.811890
498.084961	905.521301
496.844727	965.841736
495.604492	925.339844
494.364258	943.305847
493.124023	910.884338
491.882812	884.519531
490.642578	920.613220
489.401367	900.298706
488.159180	902.142639
486.917969	940.225830
485.675781	946.087341
484.433594	1004.273438
483.191406	935.669495
481.948242	953.599304
480.705078	961.465088
479.462891	939.162109
478.218750	938.984924
476.975586	970.972473
475.731445	924.561157
474.487305	904.291321
473.243164	984.486938
471.999023	932.072876
470.753906	915.829773
469.508789	939.753113
468.263672	959.652100
467.018555	961.478210
465.772461	951.262268
464.526367	945.063110
463.280273	960.933655
462.034180	976.798157
460.787109	1040.785400
459.540039	1000.489075
458.292969	936.152649
457.045898	984.077332
455.797852	941.810547
454.550781	941.632629
453.302734	987.525879
452.053711	975.322998
450.805664	993.159790
449.556641	976.956421
448.307617	948.749634
447.058594	932.560730
445.808594	974.401794
444.559570	992.221619
443.309570	972.033386
442.059570	993.846191
440.808594	889.694092
439.557617	949.493896
438.307617	965.302795
437.055664	947.136658
435.804688	990.909180
434.552734	958.763000
433.300781	908.655579
432.048828	944.423706
430.796875	940.252502
429.543945	914.127747
428.291016	939.896790
427.038086	969.646301
425.785156	943.530701
424.531250	901.469727
423.278320	951.149780
422.023438	976.887146
420.769531	942.816711
419.515625	916.730652
418.260742	914.564636
417.005859	908.415100
415.750000	971.979492
414.495117	918.028076
413.239258	917.854309
411.983398	975.408752
410.727539	931.438477
409.470703	933.252014
408.214844	887.316772
406.958008	950.800659
405.700195	910.845642
404.443359	954.417236
403.185547	956.224426
401.927734	958.030884
400.669922	908.168396
399.411133	953.694153
398.153320	913.783752
396.894531	919.568909
395.635742	935.280518
394.375977	956.942200
393.116211	950.805847
391.857422	968.487122
390.596680	869.092102
389.336914	946.297546
388.076172	977.853821
386.815430	941.972595
385.554688	1003.258423
384.293945	943.597778
383.032227	905.761353
381.770508	925.405518
380.508789	913.342712
379.247070	988.441589
377.984375	962.507996
376.721680	940.544373
375.458984	944.325378
374.196289	936.228821
372.932617	908.345703
371.668945	959.616699
370.405273	919.870300
369.141602	929.584900
367.876953	923.476135
366.613281	913.415405
365.347656	970.566711
364.083008	926.903015
362.818359	873.376038
361.552734	875.185852
360.287109	886.870972
359.020508	922.249634
357.754883	929.972412
356.488281	846.884033
355.221680	931.592896
353.955078	990.616150
352.687500	885.860901
351.419922	984.322083
350.152344	950.607483
348.884766	980.004456
347.616211	926.588745
346.348633	922.470520
345.080078	947.914551
343.810547	951.675110
342.541992	914.064819
341.272461	904.043152
340.002930	972.794006
338.733398	880.073425
337.462891	911.401611
336.193359	879.738831
334.922852	952.377319
333.651367	899.077820
332.380859	906.774780
331.109375	926.268372
329.837891	880.869019
328.566406	921.984375
327.293945	917.878052
326.022461	890.192017
324.750000	943.070435
323.477539	925.211792
322.204102	868.080322
320.930664	926.823425
319.657227	912.904419
318.383789	920.582153
317.110352	865.457336
315.835938	933.966614
314.561523	878.860107
313.287109	912.036072
312.011719	907.940491
310.737305	870.515869
309.461914	938.958862
308.185547	903.502319
306.910156	895.492310
305.633789	887.485291
304.357422	881.440002
303.081055	881.272156
301.804688	937.886597
300.527344	931.835083
299.250000	882.725952
297.972656	868.859619
296.694336	939.128723
295.416992	897.870789
294.138672	885.965088
292.860352	944.458252
291.581055	866.077209
290.301758	893.277344
289.022461	881.381409
287.743164	871.443848
286.463867	922.069763
285.183594	916.034485
283.903320	911.954285
282.623047	880.541687
281.342773	860.853333
280.061523	907.529419
278.780273	862.476379
277.499023	868.164734
276.216797	867.999146
274.935547	819.078918
273.653320	908.614258
272.370117	875.300354
271.087891	875.133423
269.804688	873.017761
268.521484	878.696167
267.238281	827.881653
265.955078	893.941589
264.670898	897.665466
263.386719	846.876221
262.102539	899.269348
260.817383	869.906189
259.533203	836.662781
258.248047	916.262695
256.962891	857.738220
255.676758	886.743713
254.390625	890.462891
253.104492	903.899963
251.818359	894.009827
250.532227	864.692200
249.245117	909.210510
247.958008	858.534790
246.670898	858.370850
245.382812	873.739990
244.095703	908.516052
242.807617	921.928772
241.518555	881.001465
240.230469	880.833130
238.941406	865.146545
237.652344	826.192810
236.363281	853.181580
235.074219	856.895935
233.784180	879.991821
232.494141	922.458252
231.204102	910.656494
229.913086	856.240906
228.622070	871.571838
227.331055	912.070740
226.040039	886.727234
224.749023	805.257629
223.457031	884.452820
222.165039	893.958557
220.873047	864.768494
219.580078	885.879639
218.287109	850.900635
216.994141	891.341248
215.701172	864.106995
214.407227	873.605408
213.114258	844.452515
211.820312	846.222900
210.525391	801.633118
209.231445	797.617126
207.936523	892.078918
206.641602	824.339355
205.346680	835.762573
204.050781	849.111206
202.754883	812.289490
201.458984	866.147644
200.163086	862.124390
198.866211	842.676147
197.569336	800.099854
196.272461	861.629211
194.975586	826.774353
193.677734	832.396545
192.379883	789.854675
191.082031	855.190979
189.784180	828.066833
188.485352	804.803772
187.187500	808.499573
185.887695	868.008179
184.588867	827.432373
183.289062	802.263184
181.989258	823.268188
180.689453	790.416748
179.389648	797.956421
178.088867	855.475952
176.788086	818.793030
175.487305	784.045776
174.186523	803.108582
172.884766	868.266724
171.583008	829.688721
170.281250	827.609375
168.979492	796.733215
167.676758	834.969849
166.374023	800.265869
165.071289	846.161987
163.767578	801.877197
162.463867	818.985352
161.160156	836.086914
159.856445	772.656799
158.552734	799.345093
157.248047	781.942932
155.943359	779.876709
154.638672	842.948120
153.333008	833.209229
152.027344	829.219177
150.721680	781.192810
149.416016	821.243530
148.110352	796.204468
146.803711	782.656494
145.497070	772.940125
144.189453	834.002930
142.882812	780.293213
141.575195	761.022217
140.267578	789.552246
138.959961	812.337158
137.651367	752.939697
136.342773	779.544128
135.034180	758.381226
133.725586	783.064392
132.416016	727.537109
131.106445	767.490051
129.796875	773.068970
128.487305	757.652832
127.176758	774.679932
125.866211	793.608154
124.555664	724.791138
123.244141	741.814636
121.933594	688.286865
120.622070	672.904602
119.309570	623.222351
117.998047	632.630066
116.685547	603.931213
115.373047	577.148132
114.060547	508.478271
112.748047	386.521484
111.434570	327.433044
110.121094	306.433594
108.806641	249.286194
107.493164	203.576263
106.178711	161.688339
104.864258	131.227631
103.549805	85.566772
102.234375	53.231300
100.918945	51.320301
99.603516	41.808495
