#Wave		#Intensity
1998.943359	790.480408
1997.975586	886.061340
1997.007812	849.747437
1996.039062	847.016968
1995.071289	857.197021
1994.102539	846.721741
1993.133789	851.736206
1992.165039	846.426575
1991.196289	835.958557
1990.227539	882.246826
1989.257812	882.093018
1988.288086	863.887817
1987.318359	863.737183
1986.348633	876.475952
1985.378906	824.774658
1984.409180	850.400574
1983.438477	811.604431
1982.467773	852.680054
1981.497070	849.955688
1980.526367	847.232239
1979.555664	896.004272
1978.584961	852.085266
1977.613281	867.379578
1976.641602	838.921082
1975.669922	810.472534
1974.698242	854.063293
1973.726562	823.049866
1972.753906	871.766296
1971.782227	809.906982
1970.809570	858.608643
1969.836914	876.450439
1968.863281	837.750671
1967.890625	858.159180
1966.917969	901.680542
1965.944336	911.796875
1964.970703	865.413879
1963.997070	813.911865
1963.023438	839.440735
1962.048828	841.860840
1961.075195	821.184265
1960.100586	844.132629
1959.125977	885.030090
1958.151367	792.540710
1957.176758	848.819336
1956.201172	830.723328
1955.226562	802.379639
1954.250977	894.509827
1953.275391	827.725525
1952.299805	781.461853
1951.323242	896.602905
1950.347656	847.782043
1949.371094	829.708130
1948.394531	906.374573
1947.417969	903.656250
1946.441406	813.916382
1945.464844	875.191101
1944.487305	834.100708
1943.509766	885.117798
1942.532227	867.059265
1941.554688	902.709229
1940.577148	846.301758
1939.599609	853.822937
1938.621094	851.117737
1937.642578	902.078247
1936.664062	896.810486
1935.685547	799.580078
1934.707031	860.739258
1933.727539	832.498291
1932.749023	840.012451
1931.769531	908.790710
1930.790039	834.614014
1929.810547	875.298279
1928.830078	870.042358
1927.850586	849.482178
1926.870117	892.692993
1925.889648	912.937683
1924.909180	826.089600
1923.928711	930.462830
1922.948242	897.166077
1921.966797	876.622559
1920.985352	879.017029
1920.003906	881.410706
1919.022461	860.880615
1918.041016	835.264587
1917.059570	875.855896
1916.077148	911.341675
1915.094727	852.642517
1914.112305	801.598206
1913.129883	875.242920
1912.147461	867.458130
1911.164062	849.502319
1910.180664	887.498230
1909.197266	869.545166
1908.213867	889.729614
1907.230469	889.573853
1906.247070	795.393921
1905.262695	856.232605
1904.278320	886.566345
1903.294922	858.472656
1902.309570	855.782898
1901.325195	893.717590
1900.340820	819.943787
1899.355469	822.338257
1898.370117	855.183472
1897.384766	893.091553
1896.399414	895.471863
1895.414062	847.125244
1894.427734	854.584412
1893.442383	831.615967
1892.456055	882.169678
1891.469727	927.636536
1890.482422	808.372131
1889.496094	825.965942
1888.508789	891.684265
1887.522461	853.536743
1886.535156	904.033264
1885.547852	919.065979
1884.559570	901.184937
1883.572266	873.186279
1882.583984	885.685852
1881.595703	857.699646
1880.607422	849.960327
1879.619141	882.690918
1878.630859	854.719788
1877.641602	895.022949
1876.653320	872.115173
1875.664062	897.236511
1874.674805	846.539490
1873.684570	884.289124
1872.695312	874.029663
1871.705078	863.773743
1870.715820	881.298706
1869.725586	888.718445
1868.735352	868.367920
1867.744141	890.930542
1866.753906	825.164795
1865.762695	883.048950
1864.771484	877.848877
1863.780273	870.128540
1862.789062	915.365906
1861.797852	889.992981
1860.805664	907.482300
1859.813477	869.517883
1858.821289	932.362732
1857.829102	886.848877
1856.836914	858.984070
1855.844727	858.833252
1854.851562	836.019348
1853.858398	866.084839
1852.865234	855.863770
1851.872070	878.364746
1850.878906	848.014160
1849.884766	898.183655
1848.890625	892.994995
1847.897461	872.717896
1846.903320	912.798157
1845.908203	859.840576
1844.914062	877.285583
1843.918945	897.237610
1842.923828	894.567200
1841.929688	869.286194
1840.933594	886.717102
1839.938477	886.561340
1838.943359	916.538330
1837.947266	886.249817
1836.951172	835.890442
1835.955078	941.152710
1834.958984	976.117493
1833.961914	875.591614
1832.965820	857.878784
1831.968750	902.871582
1830.971680	890.175232
1829.974609	895.032959
1828.977539	902.395569
1827.979492	847.100281
1826.982422	872.009094
1825.984375	864.339783
1824.986328	884.226929
1823.988281	884.071472
1822.989258	901.444092
1821.991211	951.356995
1820.992188	881.102051
1819.993164	898.465942
1818.994141	878.289917
1817.995117	900.651733
1816.995117	882.983704
1815.996094	925.344238
1814.996094	880.172607
1813.996094	845.017090
1812.996094	939.853638
1811.996094	864.713135
1810.995117	897.044495
1809.994141	856.914001
1808.993164	879.243896
1807.992188	834.135742
1806.991211	933.867859
1805.990234	861.304016
1804.988281	878.625122
1803.986328	910.914001
1802.984375	910.753662
1801.982422	900.614197
1800.980469	915.421692
1799.977539	887.827698
1798.975586	950.007874
1797.972656	882.529053
1796.969727	882.373657
1795.966797	912.124023
1794.962891	897.013184
1793.959961	894.363953
1792.956055	879.261475
1791.952148	829.298889
1790.948242	844.092529
1789.943359	878.796997
1788.939453	938.379883
1787.934570	898.396484
1786.929688	905.702820
1785.924805	860.763611
1784.919922	890.459778
1783.915039	843.052185
1782.909180	867.768066
1781.903320	929.765259
1780.897461	825.207642
1779.891602	894.645813
1778.885742	914.365662
1777.879883	869.487976
1776.873047	849.464233
1775.866211	874.148254
1774.859375	844.198914
1773.852539	886.252563
1772.844727	908.434937
1771.837891	918.201233
1770.830078	890.746277
1769.822266	870.743225
1768.814453	858.188171
1767.806641	865.476440
1766.797852	885.159363
1765.789062	877.566223
1764.781250	812.968811
1763.772461	862.387939
1762.762695	869.668884
1761.753906	894.288025
1760.744141	871.838928
1759.735352	871.685120
1758.725586	888.862976
1757.714844	851.573547
1756.705078	886.074280
1755.695312	846.323853
1754.684570	903.080933
1753.673828	890.552795
1752.663086	875.555725
1751.652344	877.874084
1750.640625	892.553833
1749.629883	922.060425
1748.618164	904.596680
1747.606445	877.254456
1746.594727	857.333984
1745.583008	886.825806
1744.570312	871.850281
1743.557617	916.145447
1742.545898	893.763062
1741.533203	903.479309
1740.519531	876.170837
1739.506836	900.692627
1738.493164	826.517090
1737.479492	875.706726
1736.465820	855.821289
1735.452148	863.067871
1734.438477	904.828430
1733.423828	875.088135
1732.410156	906.973389
1731.395508	874.778992
1730.380859	914.044128
1729.366211	921.272522
1728.350586	864.463989
1727.334961	893.860291
1726.320312	913.398254
1725.304688	881.236633
1724.288086	898.308716
1723.272461	888.307251
1722.256836	897.991211
1721.240234	895.372681
1720.223633	855.864319
1719.207031	922.104553
1718.190430	929.317078
1717.172852	870.158936
1716.155273	941.276672
1715.138672	904.252136
1714.121094	911.462585
1713.102539	938.321106
1712.084961	952.890625
1711.066406	955.177551
1710.048828	873.992493
1709.030273	945.021301
1708.011719	957.125000
1706.992188	922.603455
1705.973633	897.907227
1704.954102	951.711426
1703.934570	909.851685
1702.915039	912.142761
1701.895508	853.143860
1700.875977	870.150757
1699.855469	914.109314
1698.834961	896.795715
1697.814453	845.190613
1696.793945	894.028931
1695.773438	906.115479
1694.751953	930.440369
1693.730469	903.346680
1692.709961	937.453979
1691.687500	937.288025
1690.666016	929.781738
1689.644531	973.651611
1688.622070	924.560669
1687.599609	880.378052
1686.577148	902.227722
1685.554688	946.071228
1684.532227	870.133606
1683.508789	950.623718
1682.485352	994.435242
1681.461914	916.086426
1680.438477	884.172119
1679.415039	869.363281
1678.391602	910.716492
1677.367188	954.496155
1676.342773	932.360413
1675.318359	934.635498
1674.293945	988.147034
1673.268555	992.850830
1672.244141	899.992676
1671.218750	946.166077
1670.193359	906.988159
1669.167969	943.393005
1668.141602	928.602173
1667.116211	921.127014
1666.089844	994.056091
1665.063477	954.904175
1664.037109	971.783752
1663.010742	961.870972
1661.983398	913.006775
1660.957031	985.872437
1659.929688	912.682983
1658.902344	966.055725
1657.875000	951.286682
1656.846680	987.605835
1655.819336	972.838135
1654.791016	950.780579
1653.762695	953.043152
1652.734375	940.720093
1651.705078	974.578430
1650.676758	969.545654
1649.647461	971.803162
1648.618164	949.769043
1647.588867	966.601013
1646.559570	1002.852722
1645.529297	1002.674744
1644.500000	992.787415
1643.469727	995.038147
1642.439453	985.155579
1641.409180	1021.371643
1640.377930	1013.913452
1639.347656	1042.835815
1638.316406	1015.978271
1637.285156	981.857178
1636.253906	1037.432739
1635.222656	1022.707703
1634.190430	1024.949097
1633.158203	1036.880249
1632.125977	1056.073608
1631.093750	1046.199097
1630.061523	1067.805176
1629.029297	1057.931885
1627.996094	1091.630615
1626.962891	1115.637085
1625.929688	1161.411377
1624.896484	1071.695557
1623.863281	1042.480225
1622.829102	1061.641479
1621.794922	1109.810669
1620.760742	1165.214966
1619.726562	1133.586548
1618.692383	1118.885498
1617.657227	1171.842407
1616.622070	1164.386963
1615.587891	1152.103516
1614.551758	1089.111694
1613.516602	1207.226318
1612.481445	1207.011719
1611.445312	1192.315674
1610.409180	1189.690430
1609.373047	1153.287964
1608.336914	1160.319824
1607.300781	1162.525391
1606.263672	1140.615601
1605.226562	1198.277222
1604.189453	1205.296021
1603.152344	1197.851074
1602.115234	1216.915894
1601.077148	1240.792603
1600.039062	1199.620972
1599.000977	1148.830078
1597.962891	1107.689453
1596.924805	1172.497314
1595.885742	1237.282104
1594.847656	1172.080200
1593.808594	1181.496826
1592.769531	1159.633667
1591.730469	1217.158203
1590.690430	1185.676270
1589.651367	1199.892822
1588.611328	1149.191772
1587.571289	1185.043335
1586.531250	1213.672119
1585.490234	1177.412842
1584.450195	1117.141846
1583.409180	1167.385498
1582.368164	1198.398438
1581.327148	1183.778076
1580.285156	1161.960571
1579.244141	1188.157227
1578.202148	1096.749756
1577.160156	1197.331909
1576.118164	1139.541870
1575.076172	1091.366699
1574.033203	1127.145020
1572.991211	1143.728516
1571.948242	1081.194336
1570.905273	1104.970703
1569.862305	1133.531494
1568.818359	1071.032349
1567.775391	1130.732056
1566.731445	1068.255615
1565.687500	1106.381470
1564.643555	1149.282349
1563.598633	1122.744507
1562.554688	1122.544434
1561.509766	1067.304077
1560.464844	1177.174805
1559.419922	1054.962524
1558.374023	1023.681396
1557.329102	1037.847046
1556.283203	1126.126221
1555.237305	1102.020508
1554.191406	1061.192749
1553.145508	1027.548462
1552.098633	1060.814331
1551.052734	1053.458740
1550.005859	1134.475464
1548.958984	1057.858887
1547.912109	1048.120239
1546.864258	1052.707397
1545.816406	1023.879639
1544.769531	1049.945679
1543.721680	1107.017944
1542.672852	1054.341797
1541.625000	996.914612
1540.576172	1039.658447
1539.528320	1075.234619
1538.479492	1065.507935
1537.430664	1034.335449
1536.380859	1141.378418
1535.332031	1045.878296
1534.282227	1040.927734
1533.232422	1016.926270
1532.182617	1057.224121
1531.132812	1049.893188
1530.082031	1071.128296
1529.031250	1025.719727
1527.981445	1070.745972
1526.929688	1015.837463
1525.878906	1070.363525
1524.828125	1065.416138
1523.776367	1003.404724
1522.724609	1019.866699
1521.672852	1071.976074
1520.621094	1071.784546
1519.569336	1007.440125
1518.516602	1012.011414
1517.463867	992.829102
1516.411133	1011.649841
1515.358398	971.105347
1514.305664	1051.645020
1513.251953	958.890869
1512.198242	987.196350
1511.144531	1027.354858
1510.090820	1119.687866
1509.037109	1079.167236
1507.982422	1029.175537
1506.927734	969.717896
1505.873047	997.990845
1504.818359	1012.033081
1503.763672	1011.852112
1502.708984	1021.148254
1501.653320	973.589111
1500.597656	1008.941101
1499.541992	1079.800171
1498.486328	999.110107
1497.429688	1022.602783
1496.373047	1001.119507
1495.317383	972.544983
1494.260742	965.273438
1493.203125	1014.775085
1492.146484	962.563110
1491.088867	990.766113
1490.031250	1035.508179
1488.973633	1073.142944
1487.916016	954.784546
1486.858398	992.420166
1485.799805	992.242615
1484.741211	1027.495972
1483.682617	1029.673706
1482.624023	1024.766968
1481.565430	1022.222778
1480.505859	944.147644
1479.446289	1052.536255
1478.386719	962.685852
1477.327148	1042.723022
1476.267578	1044.895020
1475.207031	1014.050598
1474.147461	1065.741455
1473.086914	971.254089
1472.026367	1032.361938
1470.964844	975.619385
1469.904297	1015.499146
1468.842773	991.760071
1467.781250	1029.267334
1466.719727	1038.502441
1465.658203	1005.354004
1464.595703	1031.068359
1463.533203	1016.761902
1462.471680	1009.520203
1461.409180	988.164368
1460.345703	1009.158447
1459.283203	1016.033447
1458.219727	945.306152
1457.156250	978.051941
1456.092773	1038.994019
1455.029297	1074.061401
1453.965820	989.275269
1452.901367	1029.037842
1451.836914	1017.108459
1450.772461	1002.834778
1449.708008	1033.180786
1448.642578	983.693481
1447.578125	1023.421143
1446.512695	983.340759
1445.447266	1060.597412
1444.381836	1001.756409
1443.315430	1017.996033
1442.250000	1128.037476
1441.183594	1041.078613
1440.117188	1057.302368
1439.050781	1050.080933
1437.983398	1038.175049
1436.916992	1023.930237
1435.849609	1019.061218
1434.782227	1042.300903
1433.714844	1042.113892
1432.647461	1025.536987
1431.579102	1053.444824
1430.510742	1027.509521
1429.442383	1010.944153
1428.374023	1001.403809
1427.305664	1085.439209
1426.236328	1043.144287
1425.167969	1024.249390
1424.098633	1024.065430
1423.028320	1037.907349
1421.958984	1019.023376
1420.889648	1049.218750
1419.819336	1081.739502
1418.749023	1065.193604
1417.678711	1025.298340
1416.608398	1018.108826
1415.537109	1038.938232
1414.465820	1071.431396
1413.395508	1059.569702
1412.323242	1075.713501
1411.251953	1070.854248
1410.180664	1026.342529
1409.108398	1019.161560
1408.036133	1100.589966
1406.963867	1098.060913
1405.891602	1030.266968
1404.818359	1051.056274
1403.746094	1069.508057
1402.672852	1071.645508
1401.599609	1085.428467
1400.525391	1033.999146
1399.452148	1015.186035
1398.377930	1059.235352
1397.303711	1070.682861
1396.229492	1058.854614
1395.155273	1070.297852
1394.081055	1084.063354
1393.005859	1100.149658
1391.930664	1109.253784
1390.855469	1006.751648
1389.780273	1094.906982
1388.704102	1066.819458
1387.628906	1085.218018
1386.552734	1017.644531
1385.476562	1108.057373
1384.400391	1070.697144
1383.323242	1149.457153
1382.247070	1109.781128
1381.169922	1128.151855
1380.092773	1067.605957
1379.014648	1085.977661
1377.937500	1141.463379
1376.859375	1125.020508
1375.782227	1117.860352
1374.704102	1110.702881
1373.625000	1156.870483
1372.546875	1077.851562
1371.467773	1137.913696
1370.388672	1128.440308
1369.309570	1105.070068
1368.230469	1158.145874
1367.151367	1167.200806
1366.071289	1106.788818
1364.991211	1122.794800
1363.911133	1138.794922
1362.831055	1108.505127
1361.750977	1126.815796
1360.669922	1156.686768
1359.588867	1195.798706
1358.507812	1174.770386
1357.426758	1146.813354
1356.345703	1167.412109
1355.263672	1197.248535
1354.181641	1104.597900
1353.099609	1171.402100
1352.017578	1148.090576
1350.935547	1161.741455
1349.852539	1196.170288
1348.769531	1214.425049
1347.686523	1128.796265
1346.603516	1165.520142
1345.520508	1176.847778
1344.436523	1178.942749
1343.352539	1074.928101
1342.268555	1183.130371
1341.184570	1139.105225
1340.100586	1148.121704
1339.015625	1182.490479
1337.930664	1175.363281
1336.845703	1170.542969
1335.760742	1121.952026
1334.675781	1186.244507
1333.589844	1153.788940
1332.503906	1178.908936
1331.417969	1151.070557
1330.332031	1166.974976
1329.246094	1162.161865
1328.159180	1221.775513
1327.072266	1159.442017
1325.985352	1173.033203
1324.898438	1131.427856
1323.811523	1202.500000
1322.723633	1179.294800
1321.635742	1206.662842
1320.547852	1194.955078
1319.459961	1197.036987
1318.371094	1178.443604
1317.283203	1107.031738
1316.194336	1242.315430
1315.105469	1157.142212
1314.016602	1170.706299
1312.926758	1184.265503
1311.837891	1195.525024
1310.748047	1108.127319
1309.658203	1211.150146
1308.568359	1135.248169
1307.477539	1199.247681
1306.387695	1139.423340
1305.296875	1155.262817
1304.206055	1122.969360
1303.114258	1143.388672
1302.023438	1175.255371
1300.931641	1117.779785
1299.840820	1112.997559
1298.748047	1124.244995
1297.656250	1091.991699
1296.564453	1178.771729
1295.471680	1162.539429
1294.378906	1105.128052
1293.286133	1120.941772
1292.193359	1118.451904
1291.099609	1088.521240
1290.006836	1124.906860
1288.913086	1090.413696
1287.819336	1115.357788
1286.725586	1046.601440
1285.630859	1087.537598
1284.536133	1119.321533
1283.442383	1148.810059
1282.346680	1155.452759
1281.251953	1141.545288
1280.157227	1123.077393
1279.061523	1086.358032
1277.965820	1065.624878
1276.870117	1054.024902
1275.774414	1072.082397
1274.677734	1108.378296
1273.581055	1044.332031
1272.485352	1003.106934
1271.387695	1082.703613
1270.291016	1075.670776
1269.194336	1059.526245
1268.096680	1050.221924
1266.999023	1045.476318
1265.901367	1040.732544
1264.803711	1058.759277
1263.705078	1069.950073
1262.606445	1117.554077
1261.507812	1133.281372
1260.409180	1035.240234
1259.310547	1025.953491
1258.210938	1037.139893
1257.111328	1057.418213
1256.011719	1059.500244
1254.912109	1032.030029
1253.812500	1061.389282
1252.711914	1031.656250
1251.612305	1006.477844
1250.511719	1008.567078
1249.410156	1019.740051
1248.309570	1017.284546
1247.208008	1026.181519
1246.107422	1044.154785
1245.005859	1034.887573
1243.903320	1048.314575
1242.801758	952.840515
1241.699219	993.496460
1240.597656	1000.119934
1239.495117	1015.810669
1238.391602	1040.563843
1237.289062	1063.041260
1236.185547	1012.992126
1235.082031	958.429504
1233.978516	978.644165
1232.875000	971.671814
1231.771484	998.670288
1230.666992	1005.281677
1229.562500	1005.099365
1228.458008	927.963928
1227.353516	934.584412
1226.248047	984.190002
1225.143555	941.031677
1224.038086	981.571289
1222.931641	976.870667
1221.826172	983.476013
1220.720703	1035.288086
1219.614258	985.379211
1218.507812	949.046265
1217.401367	985.021606
1216.294922	955.478271
1215.187500	912.395203
1214.080078	921.261597
1212.972656	986.564331
1211.865234	999.928284
1210.757812	918.503235
1209.649414	958.950867
1208.541016	942.985168
1207.432617	931.536255
1206.324219	920.091492
1205.215820	978.547058
1204.106445	935.537537
1202.997070	928.605957
1201.887695	964.493103
1200.778320	986.848694
1199.668945	946.121399
1198.558594	988.742493
1197.448242	1002.073975
1196.337891	898.325623
1195.227539	895.911377
1194.117188	958.766052
1193.005859	918.087952
1191.894531	931.419983
1190.783203	953.744690
1189.671875	949.073425
1188.559570	906.177917
1187.447266	930.743103
1186.334961	953.051514
1185.222656	950.630920
1184.110352	925.741699
1182.998047	954.778442
1181.884766	945.620300
1180.771484	929.728333
1179.658203	958.748352
1178.543945	918.165710
1177.430664	893.309326
1176.316406	953.737244
1175.202148	875.034973
1174.087891	926.471069
1172.972656	919.573975
1171.858398	856.617920
1170.743164	903.545105
1169.627930	939.246948
1168.512695	892.010193
1167.396484	954.591003
1166.281250	929.772705
1165.165039	925.123535
1164.048828	891.361145
1162.931641	935.982788
1161.815430	924.618530
1160.698242	928.927002
1159.581055	937.709778
1158.463867	895.025391
1157.346680	879.202393
1156.228516	894.699585
1155.111328	887.827637
1153.993164	925.676880
1152.875000	970.218872
1151.755859	860.521301
1150.637695	929.640686
1149.518555	895.956787
1148.399414	920.366516
1147.280273	962.635254
1146.160156	868.670288
1145.041016	884.140808
1143.920898	883.979736
1142.800781	886.050598
1141.680664	863.574585
1140.559570	874.572510
1139.439453	883.335693
1138.318359	903.246887
1137.197266	896.392822
1136.075195	914.064819
1134.954102	913.898254
1133.832031	904.817200
1132.709961	853.403503
1131.587891	891.120605
1130.465820	835.273254
1129.342773	879.660767
1128.220703	881.726929
1127.097656	857.078247
1125.974609	841.341553
1124.850586	879.019348
1123.727539	845.484680
1122.603516	856.453247
1121.479492	845.176270
1120.355469	838.350891
1119.230469	867.101379
1118.106445	866.943176
1116.981445	911.235535
1115.856445	855.516296
1114.730469	842.029907
1113.605469	848.540222
1112.479492	846.164490
1111.353516	850.451050
1110.227539	839.195374
1109.101562	836.822510
1107.974609	878.836182
1106.848633	820.984924
1105.721680	831.927429
1104.594727	840.647827
1103.466797	829.406067
1102.339844	827.037415
1101.211914	806.934692
1100.083984	842.250549
1098.956055	826.584473
1097.827148	819.786560
1096.699219	844.004456
1095.570312	852.709656
1094.441406	819.337524
1093.311523	859.040222
1092.182617	834.533508
1091.052734	843.233948
1089.922852	893.974487
1088.792969	809.739807
1087.663086	860.467834
1086.532227	807.232300
1085.402344	791.606445
1084.271484	875.471741
1083.139648	844.366333
1082.008789	857.471924
1080.876953	841.848145
1079.746094	877.041016
1078.614258	812.826477
1077.481445	841.386597
1076.349609	823.569092
1075.216797	871.984741
1074.083984	862.996704
1072.951172	869.459167
1071.818359	800.903442
1070.685547	813.992615
1069.551758	840.310242
1068.417969	800.464111
1067.284180	813.546082
1066.149414	886.140137
1065.015625	857.326965
1063.880859	821.913818
1062.746094	826.169678
1061.611328	848.045654
1060.476562	872.115967
1059.340820	821.312439
1058.205078	845.378723
1057.069336	847.425110
1055.933594	807.657410
1054.796875	836.113464
1053.661133	829.360718
1052.524414	831.408386
1051.387695	796.070740
1050.250000	789.328979
1049.113281	839.744995
1047.975586	762.665344
1046.837891	802.080383
1045.700195	845.875061
1044.561523	830.343445
1043.423828	847.761536
1042.285156	865.173218
1041.146484	825.496338
1040.007812	818.759949
1038.868164	880.060547
1037.728516	893.064941
1036.589844	846.830200
1035.449219	785.258240
1034.309570	824.589355
1033.169922	824.438293
1032.029297	791.403381
1030.888672	837.287231
1029.748047	848.091064
1028.606445	764.675781
1027.465820	858.733459
1026.324219	803.819885
1025.182617	764.255371
1024.041016	770.683594
1022.898438	794.621765
1021.756836	790.098755
1020.614258	831.530457
1019.471680	791.996887
1018.328125	864.037048
1017.185547	815.763794
1016.041992	802.494385
1014.898438	806.719666
1013.754883	813.129211
1012.610352	788.940308
1011.466797	817.200989
1010.322266	852.005127
1009.177734	801.611572
1008.033203	821.118896
1006.887695	836.252258
1005.742188	777.157104
1004.597656	846.858459
1003.451172	846.703064
1002.305664	792.002075
1001.160156	846.392273
1000.013672	793.892334
998.867188	852.623413
997.720703	782.699829
996.573242	769.477173
995.426758	773.694763
994.279297	828.028198
993.131836	860.555481
991.983398	814.654846
990.835938	853.705994
989.687500	814.355652
988.539062	814.206055
987.390625	803.173401
986.242188	829.140503
985.092773	850.746460
983.944336	835.362183
982.794922	761.257935
981.644531	808.959778
980.495117	743.584412
979.344727	771.707520
978.194336	808.513916
977.043945	788.808105
975.893555	799.526245
974.742188	810.240417
973.591797	797.060547
972.440430	786.056885
971.289062	798.938538
970.136719	848.716125
968.985352	850.730347
967.833008	748.591797
966.680664	811.367737
965.528320	813.387573
964.375000	819.743835
963.221680	819.593079
962.069336	758.742920
960.915039	784.612610
959.761719	871.149902
958.608398	838.489990
957.454102	808.008362
956.299805	801.362183
955.145508	827.200073
953.990234	842.203186
952.834961	848.542175
951.680664	783.458496
950.525391	783.314331
949.369141	811.295044
948.213867	761.395447
947.057617	798.020447
945.901367	769.764221
944.745117	802.050415
943.588867	819.194458
942.431641	790.949768
941.274414	788.643494
940.117188	825.222839
938.959961	809.951782
937.801758	818.440491
936.644531	738.403992
935.486328	794.393616
934.328125	828.779785
933.168945	789.785217
932.010742	809.057068
930.851562	770.080444
929.692383	821.699158
928.533203	804.297424
927.373047	795.525635
926.213867	827.711487
925.053711	788.767151
923.893555	782.157654
922.732422	792.785034
921.572266	751.714661
920.411133	803.260376
919.250000	807.418579
918.088867	770.673462
916.926758	783.445312
915.765625	828.491333
914.603516	802.520203
913.441406	804.523376
912.279297	804.375000
911.116211	782.723267
909.953125	784.728882
908.790039	808.229126
907.626953	820.974915
906.463867	773.550964
905.299805	812.078674
904.135742	882.811523
902.971680	753.794800
901.807617	805.187744
900.643555	826.506897
899.478516	794.158752
898.313477	815.471985
897.148438	793.865662
895.982422	802.299866
894.817383	808.586182
893.651367	782.704163
892.485352	780.415649
891.319336	780.271606
890.152344	797.273193
888.986328	782.126343
887.819336	784.124329
886.652344	756.133240
885.484375	775.268250
884.317383	809.384766
883.149414	843.488586
881.981445	804.804932
880.813477	770.415588
879.644531	798.088684
878.475586	825.751526
877.307617	810.626953
876.137695	810.477173
874.968750	808.189392
873.798828	771.699585
872.629883	827.126221
871.459961	784.235718
870.289062	784.090759
869.119141	798.898499
867.948242	800.886536
866.777344	758.032410
865.606445	783.511169
864.435547	804.711487
863.263672	793.892090
862.092773	806.547668
860.920898	753.065247
859.748047	787.052979
858.576172	814.630432
857.403320	776.101135
856.230469	775.957642
855.057617	760.894592
853.884766	775.670593
852.710938	801.093933
851.538086	775.383606
850.364258	805.057068
849.189453	796.390625
848.015625	806.888184
846.840820	847.182251
845.666016	836.384460
844.491211	802.184692
843.316406	833.947510
842.140625	784.871582
840.965820	816.625732
839.790039	790.959778
838.613281	807.820068
837.437500	771.537903
836.260742	790.520508
835.083984	849.864685
833.907227	790.227783
832.730469	800.700806
831.552734	770.823792
830.375977	777.050293
829.198242	749.311340
828.019531	802.230103
826.841797	810.569153
825.663086	827.391113
824.484375	827.237793
823.305664	799.515076
822.126953	831.171997
820.947266	809.818542
819.767578	830.863953
818.587891	820.114197
817.408203	839.031067
816.228516	796.508118
815.047852	804.832397
813.867188	819.506348
812.686523	836.291931
811.504883	804.384888
810.324219	789.420898
809.142578	797.738586
807.960938	778.550049
806.779297	829.171265
805.596680	812.098755
804.415039	780.231445
803.232422	843.508362
802.048828	822.215271
800.866211	735.418640
799.682617	771.201172
798.500000	813.307861
797.315430	770.915039
796.131836	753.878357
794.948242	876.194580
793.763672	795.817017
792.579102	793.558777
791.394531	820.843323
790.208984	793.264282
789.024414	828.976074
787.838867	773.989136
786.653320	851.862610
785.466797	782.134521
784.281250	796.743835
783.094727	868.247375
781.908203	800.661987
780.721680	783.660400
779.534180	834.064209
778.347656	854.967651
777.160156	827.438110
775.972656	820.969299
774.784180	822.921448
773.596680	782.787476
772.408203	776.330444
771.219727	793.014099
770.031250	776.041992
768.841797	784.308655
767.653320	809.390625
766.463867	823.953674
765.274414	834.308228
764.083984	811.040588
762.894531	819.292847
761.704102	796.036621
760.513672	829.488159
759.322266	772.645325
758.131836	801.890320
756.940430	805.938843
755.749023	807.887390
754.557617	782.560913
753.365234	740.462830
752.173828	763.394714
750.981445	819.867676
749.789062	809.232910
748.595703	796.505920
747.403320	800.549133
746.209961	768.970886
745.016602	800.251282
743.823242	877.599243
742.628906	831.365295
741.435547	806.085876
740.241211	803.842529
739.046875	766.019836
737.851562	830.746643
736.657227	784.564270
735.461914	784.418213
734.266602	836.557007
733.070312	821.764221
731.875000	823.701904
730.678711	796.375610
729.482422	796.227295
728.286133	796.079041
727.089844	791.752686
725.892578	797.871216
724.695312	803.987488
723.498047	747.464722
722.300781	789.075500
721.102539	799.364075
719.904297	788.781555
718.706055	761.512207
717.507812	778.057922
716.308594	798.768555
715.110352	806.960388
713.911133	777.623047
712.711914	810.828430
711.511719	837.769348
710.311523	808.442566
709.112305	791.626099
707.912109	803.975525
706.710938	797.578308
705.510742	795.347534
704.309570	832.669373
703.108398	767.994324
701.907227	840.682495
700.705078	782.271484
699.502930	773.805115
698.301758	836.052795
697.098633	852.531616
695.896484	808.714478
694.693359	814.799316
693.491211	791.787354
692.287109	808.261963
691.083984	839.272278
689.880859	826.653564
688.676758	803.656372
687.472656	807.658875
686.268555	780.522034
685.063477	815.659302
683.858398	813.432007
682.654297	825.728333
681.448242	765.419312
680.243164	754.906799
679.037109	785.868835
677.832031	748.405518
676.625977	818.739563
675.418945	799.935303
674.212891	762.490234
673.005859	795.493408
671.798828	828.484192
670.591797	778.629700
669.383789	811.611206
668.176758	792.829163
666.968750	842.352966
665.760742	844.264893
664.551758	777.902649
663.343750	792.236816
662.134766	796.225037
660.925781	841.566345
659.715820	793.860107
658.506836	801.979614
657.296875	779.097412
656.086914	816.143127
654.876953	797.398376
653.666016	832.361328
652.456055	830.140686
651.245117	772.175537
650.034180	848.408569
648.822266	776.014526
647.611328	790.313782
646.399414	800.481445
645.187500	820.958862
643.974609	785.745789
642.762695	830.961487
641.549805	806.067383
640.336914	816.222412
639.124023	828.434448
637.910156	842.702209
636.696289	883.744751
635.483398	784.717346
634.268555	838.110718
633.054688	794.717957
631.839844	862.498718
630.625000	812.943237
629.410156	792.214111
628.195312	843.498657
626.979492	857.739197
625.764648	816.447754
624.548828	799.845642
623.332031	795.584351
622.116211	822.155396
620.899414	834.331482
619.682617	825.956726
618.465820	799.096985
617.248047	743.493408
616.031250	811.118469
614.813477	839.709595
613.595703	802.603821
612.376953	790.139587
611.159180	761.264587
609.940430	795.998108
608.721680	838.923279
607.502930	820.309082
606.283203	818.104980
605.063477	863.051758
603.843750	782.954773
602.624023	834.038940
601.403320	825.687134
600.183594	811.193115
598.962891	815.137207
597.742188	804.745850
596.520508	804.594971
595.299805	800.350220
594.078125	800.200134
592.856445	789.819214
591.633789	818.312012
590.412109	828.385498
589.189453	801.644958
587.966797	848.521057
586.743164	819.742432
585.520508	842.071106
584.296875	780.608765
583.073242	817.237976
581.849609	794.614807
580.625000	784.254028
579.401367	837.197388
578.176758	810.500000
576.952148	906.283264
575.726562	810.195740
574.500977	818.205261
573.276367	818.051697
572.049805	860.730652
570.824219	850.372742
569.598633	833.902039
568.372070	778.705994
567.145508	800.979004
565.917969	790.639893
564.691406	829.201050
563.463867	818.860474
562.236328	855.365173
561.008789	761.539185
559.780273	791.933411
558.552734	789.749207
557.324219	868.967896
556.094727	817.937805
554.866211	807.612671
553.636719	831.867737
552.407227	845.946106
551.177734	805.124268
549.948242	811.071167
548.717773	825.145386
547.488281	798.574280
546.256836	806.550598
545.026367	796.242798
543.795898	796.093079
542.564453	783.760559
541.333008	807.974243
540.100586	789.554932
538.869141	872.608643
537.636719	791.286926
536.404297	801.280823
535.171875	829.524597
533.939453	780.701416
532.706055	812.993164
531.472656	825.002441
530.239258	788.367432
529.004883	820.639404
527.771484	784.018982
526.537109	796.024475
525.302734	765.497742
524.067383	811.922791
522.833008	846.184143
521.597656	791.377319
520.362305	756.827087
519.126953	736.452393
517.890625	786.884766
516.654297	849.432800
515.417969	831.074158
514.181641	774.310120
512.944336	802.462708
511.708008	834.646545
510.470703	767.810974
509.233398	783.827759
507.995117	759.442566
506.756836	811.804260
505.518555	801.556152
504.280273	811.498352
503.041992	825.473328
501.802734	791.013611
500.563477	825.162231
499.324219	843.160889
498.084961	855.102478
496.844727	804.532043
495.604492	790.268433
494.364258	792.135071
493.124023	828.259888
491.882812	811.984924
490.642578	850.106750
489.401367	791.537781
488.159180	807.498230
486.917969	837.545898
485.675781	809.206604
484.433594	835.217407
483.191406	804.876953
481.948242	822.831421
480.705078	808.596191
479.462891	818.498901
478.218750	792.205688
476.975586	826.231201
475.731445	801.956299
474.487305	829.938477
473.243164	857.910034
471.999023	789.449646
470.753906	851.561035
469.508789	863.448364
468.263672	778.964478
467.018555	826.991699
465.772461	814.794250
464.526367	872.828979
463.280273	764.333435
462.034180	804.304016
460.787109	834.232666
459.540039	789.965332
458.292969	823.894470
457.045898	859.815002
455.797852	811.560120
454.550781	817.417236
453.302734	849.312317
452.053711	825.119263
450.805664	792.925964
449.556641	778.762390
448.307617	800.632629
447.058594	804.483704
445.808594	854.352295
444.559570	814.181824
443.309570	796.027344
442.059570	805.875305
440.808594	857.705078
439.557617	853.545044
438.307617	841.392273
437.055664	817.255066
435.804688	805.113708
434.552734	780.992371
433.300781	828.773743
432.048828	794.673645
430.796875	852.415710
429.543945	786.389404
428.291016	814.178101
427.038086	802.053101
425.785156	817.859619
424.531250	861.581665
423.278320	787.639709
422.023438	795.465271
420.769531	811.260864
419.515625	805.128662
418.260742	808.961304
417.005859	834.705994
415.750000	830.564453
414.495117	798.545044
413.239258	786.447815
411.983398	818.148987
410.727539	829.935608
409.470703	821.818909
408.214844	817.684265
406.958008	783.714355
405.700195	825.329529
404.443359	767.510498
403.185547	817.064941
401.927734	810.947327
400.669922	790.921265
399.411133	802.692566
398.153320	824.391846
396.894531	814.305054
395.635742	800.250610
394.375977	821.937866
393.116211	817.812134
391.857422	785.903442
390.596680	825.439087
389.336914	759.815430
388.076172	825.126099
386.815430	807.121765
385.554688	801.020569
384.293945	806.815735
383.032227	818.554565
381.770508	846.141663
380.508789	822.206543
379.247070	796.299622
377.984375	758.519653
376.721680	782.136902
375.458984	809.704590
374.196289	827.365051
372.932617	753.986267
371.668945	862.665710
370.405273	832.828796
369.141602	787.180420
367.876953	749.459167
366.613281	784.904541
365.347656	778.825439
364.083008	796.464661
362.818359	790.385559
361.552734	796.162292
360.287109	778.234192
359.020508	708.967102
357.754883	815.453491
356.488281	829.117249
355.221680	773.695801
353.955078	779.468872
352.687500	787.212708
351.419922	826.514954
350.152344	804.663574
348.884766	841.975708
347.616211	770.842957
346.348633	788.436340
345.080078	770.550049
343.810547	742.818848
342.541992	780.107056
341.272461	799.654724
340.002930	775.872131
338.733398	789.506592
337.462891	751.955566
336.193359	785.270264
334.922852	769.379150
333.651367	765.298218
332.380859	757.284790
331.109375	782.706604
329.837891	782.557739
328.566406	788.306458
327.293945	782.260132
326.022461	748.704590
324.750000	778.033081
323.477539	791.635559
322.204102	817.016785
320.930664	736.353333
319.657227	765.661804
318.383789	812.624756
317.110352	779.107849
315.835938	802.504944
314.561523	731.729492
313.287109	749.242554
312.011719	796.163818
310.737305	797.972900
309.461914	791.940247
308.185547	787.869690
306.910156	791.638733
305.633789	769.937561
304.357422	836.388611
303.081055	793.144958
301.804688	749.917664
300.527344	794.800476
299.250000	743.760254
297.972656	771.015076
296.694336	786.520325
295.416992	825.493408
294.138672	794.043762
292.860352	788.026245
291.581055	785.921082
290.301758	799.453857
289.022461	781.713013
287.743164	783.517883
286.463867	785.322083
285.183594	796.891418
283.903320	779.164368
282.623047	745.824646
281.342773	778.867310
280.061523	784.573853
278.780273	790.278137
277.499023	776.470947
276.216797	717.806030
274.935547	809.328003
273.653320	768.227478
272.370117	766.131531
271.087891	738.698364
269.804688	816.505432
268.521484	769.589783
267.238281	742.171570
265.955078	761.505798
264.670898	784.727051
263.386719	737.853088
262.102539	727.979919
260.817383	776.493469
259.533203	725.756348
258.248047	735.344604
256.962891	752.709045
255.676758	723.396179
254.390625	711.592590
253.104492	785.323853
251.818359	777.399902
250.532227	753.933899
249.245117	777.102966
247.958008	726.452515
246.670898	796.226318
245.382812	739.766541
244.095703	710.506104
242.807617	737.543030
241.518555	809.201782
240.230469	760.543152
238.941406	725.481628
237.652344	752.494873
236.363281	717.448181
235.074219	748.329895
233.784180	773.384888
232.494141	794.554382
231.204102	738.213013
229.913086	761.318298
228.622070	726.309875
227.331055	712.615784
226.040039	758.945618
224.749023	737.507629
223.457031	727.689819
222.165039	717.875793
220.873047	769.972839
219.580078	752.417419
218.287109	756.141235
216.994141	763.730591
215.701172	844.775696
214.407227	763.438354
213.114258	714.982666
211.820312	738.030029
210.525391	753.341980
209.231445	706.847168
207.936523	735.675476
206.641602	760.631653
205.346680	739.254211
204.050781	717.884949
202.754883	735.112366
201.458984	719.539124
200.163086	736.759583
198.866211	715.406982
197.569336	732.621521
196.272461	713.205383
194.975586	709.214417
193.677734	714.859070
192.379883	743.619263
191.082031	776.220642
189.784180	779.923401
188.485352	745.117371
187.187500	723.799622
185.887695	694.791443
184.588867	715.825195
183.289062	736.850830
181.989258	715.550842
180.689453	726.952637
179.389648	742.195618
178.088867	743.975708
176.788086	736.144897
175.487305	703.335205
174.186523	710.885620
172.884766	697.302673
171.583008	749.024536
170.281250	777.684021
168.979492	685.382568
167.676758	727.479492
166.374023	710.067993
165.071289	704.175598
163.767578	715.550720
162.463867	736.511414
161.160156	711.440918
159.856445	701.718079
158.552734	715.001709
157.248047	730.196716
155.943359	703.230347
154.638672	728.000671
153.333008	693.383301
152.027344	670.269531
150.721680	712.264038
149.416016	666.183594
148.110352	669.883606
146.803711	696.545166
145.497070	663.886719
144.189453	654.194946
142.882812	730.568665
141.575195	688.361816
140.267578	732.199829
138.959961	676.629089
137.651367	703.253296
136.342773	672.547852
135.034180	668.598083
133.725586	664.649780
132.416016	666.431641
131.106445	639.575073
129.796875	673.810730
128.487305	629.786987
127.176758	622.033630
125.866211	627.637207
124.555664	650.404724
123.244141	610.233093
121.933594	579.609985
120.622070	558.529846
119.309570	573.669495
117.998047	510.677277
116.685547	491.527618
115.373047	457.147064
114.060547	430.397339
112.748047	384.617432
111.434570	285.552063
110.121094	230.301025
108.806641	184.585953
107.493164	184.550446
106.178711	138.861755
104.864258	83.681389
103.549805	85.566772
102.234375	74.143593
100.918945	34.213535
99.603516	15.203089
