#Wave		#Intensity
1998.943359	2516.104248
1997.975586	2498.021240
1997.007812	2469.175049
1996.039062	2411.932617
1995.071289	2481.223877
1994.102539	2504.024658
1993.133789	2436.481689
1992.165039	2474.765381
1991.196289	2453.693115
1990.227539	2512.597656
1989.257812	2468.312988
1988.288086	2449.831299
1987.318359	2475.187256
1986.348633	2464.444092
1985.378906	2541.336914
1984.409180	2484.200439
1983.438477	2586.828125
1982.467773	2524.551270
1981.497070	2441.690918
1980.526367	2459.291260
1979.555664	2536.104004
1978.584961	2509.918701
1977.613281	2519.776367
1976.641602	2501.322998
1975.669922	2459.719727
1974.698242	2474.725586
1973.726562	2530.878418
1972.753906	2494.434570
1971.782227	2452.861084
1970.809570	2493.563965
1969.836914	2441.724121
1968.863281	2526.101074
1967.890625	2520.521484
1966.917969	2548.339355
1965.944336	2540.189209
1964.970703	2524.337646
1963.997070	2559.842773
1963.023438	2520.889404
1962.048828	2453.716309
1961.075195	2460.986572
1960.100586	2519.569092
1959.125977	2611.480225
1958.151367	2534.078369
1957.176758	2500.298584
1956.201172	2461.402588
1955.226562	2522.496826
1954.250977	2591.259033
1953.275391	2524.178467
1952.299805	2605.727051
1951.323242	2507.926270
1950.347656	2453.701416
1949.371094	2555.705811
1948.394531	2614.148193
1947.417969	2529.213623
1946.441406	2508.295898
1945.464844	2515.534668
1944.487305	2568.825439
1943.509766	2614.423096
1942.532227	2511.658447
1941.554688	2539.349121
1940.577148	2521.007568
1939.599609	2541.017822
1938.621094	2458.784668
1937.642578	2476.243164
1936.664062	2547.350586
1935.685547	2457.495361
1934.707031	2556.676514
1933.727539	2482.172852
1932.749023	2537.909912
1931.769531	2458.329834
1930.790039	2547.231689
1929.810547	2508.508057
1928.830078	2650.950195
1927.850586	2454.059570
1926.870117	2535.248047
1925.889648	2578.156494
1924.909180	2580.255127
1923.928711	2584.902100
1922.948242	2497.791992
1921.966797	2484.613281
1920.985352	2578.449951
1920.003906	2417.510742
1919.022461	2529.155029
1918.041016	2526.166016
1917.059570	2454.433350
1916.077148	2499.825439
1915.094727	2563.018066
1914.112305	2501.495361
1913.129883	2516.323242
1912.147461	2546.409180
1911.164062	2533.246582
1910.180664	2479.400635
1909.197266	2514.562012
1908.213867	2503.953369
1907.230469	2536.556396
1906.247070	2482.747070
1905.262695	2533.127441
1904.278320	2507.280762
1903.294922	2420.486328
1902.309570	2506.402588
1901.325195	2523.736572
1900.340820	2561.372314
1899.355469	2497.471680
1898.370117	2552.862305
1897.384766	2542.266357
1896.399414	2534.210693
1895.414062	2579.420166
1894.427734	2573.896729
1893.442383	2550.626953
1892.456055	2502.015625
1891.469727	2602.958252
1890.482422	2534.082031
1889.496094	2500.700684
1888.508789	2482.530029
1887.522461	2499.824219
1886.535156	2623.468994
1885.547852	2519.202881
1884.559570	2564.326904
1883.572266	2490.479004
1882.583984	2545.714111
1881.595703	2484.545898
1880.607422	2476.521240
1879.619141	2622.780762
1878.630859	2571.745605
1877.641602	2566.238037
1876.653320	2573.371826
1875.664062	2494.570312
1874.674805	2559.834473
1873.684570	2602.336670
1872.695312	2584.197510
1871.705078	2606.475098
1870.715820	2550.463379
1869.725586	2481.847168
1868.735352	2476.363281
1867.744141	2556.692871
1866.753906	2528.486572
1865.762695	2472.537109
1864.771484	2557.870117
1863.780273	2592.730713
1862.789062	2539.320801
1861.797852	2571.651123
1860.805664	2591.365967
1859.813477	2520.341797
1858.821289	2567.777344
1857.829102	2547.171143
1856.836914	2546.723877
1855.844727	2531.165527
1854.851562	2500.503662
1853.858398	2444.675537
1852.865234	2522.281006
1851.872070	2579.724609
1850.878906	2624.566162
1849.884766	2525.984375
1848.890625	2490.323975
1847.897461	2542.702637
1846.903320	2507.051758
1845.908203	2504.097168
1844.914062	2574.041260
1843.918945	2520.810547
1842.923828	2593.239746
1841.929688	2540.024170
1840.933594	2476.779297
1839.938477	2589.361816
1838.943359	2495.997559
1837.947266	2442.835938
1836.951172	2605.568359
1835.955078	2592.562012
1834.958984	2574.541260
1833.961914	2513.876221
1832.965820	2611.262695
1831.968750	2518.008545
1830.971680	2477.445557
1829.974609	2557.237061
1828.977539	2476.574463
1827.979492	2624.005859
1826.982422	2653.613770
1825.984375	2590.513916
1824.986328	2570.019287
1823.988281	2484.416016
1822.989258	2559.099609
1821.991211	2598.706787
1820.992188	2558.199707
1819.993164	2572.765869
1818.994141	2559.802246
1817.995117	2639.409912
1816.995117	2551.397705
1815.996094	2488.425781
1814.996094	2568.003662
1813.996094	2552.551514
1812.996094	2562.101074
1811.996094	2556.651855
1810.995117	2551.204590
1809.994141	2580.735107
1808.993164	2575.285400
1807.992188	2569.837402
1806.991211	2584.366943
1805.990234	2631.346191
1804.988281	2590.945557
1803.986328	2587.993896
1802.984375	2540.129395
1801.982422	2544.671875
1800.980469	2576.650146
1799.977539	2518.836914
1798.975586	2593.197266
1797.972656	2478.061768
1796.969727	2634.657959
1795.966797	2492.142090
1794.962891	2494.194824
1793.959961	2575.967529
1792.956055	2550.605469
1791.952148	2619.887207
1790.948242	2514.847900
1789.943359	2549.258057
1788.939453	2518.940186
1787.934570	2540.894287
1786.929688	2630.021484
1785.924805	2477.805176
1784.919922	2661.430176
1783.915039	2539.104004
1782.909180	2498.873535
1781.903320	2451.199219
1780.897461	2584.987793
1779.891602	2505.008301
1778.885742	2621.347168
1777.879883	2499.156738
1776.873047	2540.941162
1775.866211	2503.242676
1774.859375	2428.313232
1773.852539	2554.492676
1772.844727	2422.493164
1771.837891	2518.849365
1770.830078	2520.886475
1769.822266	2522.922852
1768.814453	2554.721924
1767.806641	2529.472656
1766.797852	2529.026611
1765.789062	2508.748779
1764.781250	2533.091797
1763.772461	2463.257568
1762.762695	2495.032959
1761.753906	2425.229980
1760.744141	2561.026855
1759.735352	2553.145996
1758.725586	2513.080566
1757.714844	2564.622803
1756.705078	2601.296143
1755.695312	2593.413330
1754.684570	2627.594482
1753.673828	2436.651367
1752.663086	2542.574219
1751.652344	2455.574463
1750.640625	2455.141113
1749.629883	2570.892334
1748.618164	2523.478760
1747.606445	2567.513672
1746.594727	2626.357422
1745.583008	2593.780273
1744.570312	2516.757568
1743.557617	2489.149902
1742.545898	2538.089600
1741.533203	2515.424805
1740.519531	2527.321045
1739.506836	2615.710205
1738.493164	2580.707031
1737.479492	2597.518799
1736.465820	2560.064941
1735.452148	2599.067139
1734.438477	2470.403564
1733.423828	2524.197998
1732.410156	2538.539551
1731.395508	2577.517822
1730.380859	2510.541748
1729.366211	2549.510986
1728.350586	2549.060303
1727.334961	2536.297852
1726.320312	2590.013428
1725.304688	2557.555420
1724.288086	2512.803467
1723.272461	2509.898438
1722.256836	2566.040771
1721.240234	2604.944092
1720.223633	2368.383057
1719.207031	2505.665527
1718.190430	2554.392578
1717.172852	2544.108887
1716.155273	2516.625000
1715.138672	2577.610107
1714.121094	2427.291260
1713.102539	2561.960449
1712.084961	2512.389404
1711.066406	2511.945068
1710.048828	2563.056641
1709.030273	2577.330811
1708.011719	2576.875000
1706.992188	2554.335449
1705.973633	2556.336914
1704.954102	2504.374512
1703.934570	2459.787842
1702.915039	2481.420654
1701.895508	2593.753418
1700.875977	2571.234375
1699.855469	2497.258301
1698.834961	2646.282471
1697.814453	2577.218994
1696.793945	2549.819580
1695.773438	2473.450439
1694.751953	2551.365479
1693.730469	2572.946777
1692.709961	2611.653809
1691.687500	2557.352539
1690.666016	2578.920898
1689.644531	2470.824463
1688.622070	2526.643311
1687.599609	2584.887695
1686.577148	2486.627441
1685.554688	2539.968994
1684.532227	2458.860840
1683.508789	2524.406982
1682.485352	2555.723145
1681.461914	2445.340088
1680.438477	2554.817871
1679.415039	2510.408691
1678.391602	2595.419922
1677.367188	2514.401611
1676.342773	2491.989502
1675.318359	2508.630127
1674.293945	2554.542969
1673.268555	2505.301758
1672.244141	2575.588867
1671.218750	2594.641113
1670.193359	2545.418457
1669.167969	2457.209717
1668.141602	2447.025146
1667.116211	2485.580811
1666.089844	2453.466797
1665.063477	2482.263672
1664.037109	2508.614746
1663.010742	2491.124023
1661.983398	2407.903076
1660.957031	2443.989990
1659.929688	2533.607910
1658.902344	2518.558350
1657.875000	2547.307129
1656.846680	2466.582031
1655.819336	2539.107422
1654.791016	2553.247070
1653.762695	2526.050781
1652.734375	2545.049072
1651.705078	2442.521973
1650.676758	2471.247803
1649.647461	2533.976562
1648.618164	2506.807129
1647.588867	2455.360840
1646.559570	2493.776611
1645.529297	2418.072754
1644.500000	2565.712158
1643.469727	2514.291504
1642.439453	2479.874512
1641.409180	2498.842773
1640.377930	2391.671387
1639.347656	2485.829590
1638.316406	2487.813232
1637.285156	2526.160889
1636.253906	2520.864746
1635.222656	2510.723145
1634.190430	2592.660889
1633.158203	2446.843506
1632.125977	2497.274902
1631.093750	2465.348633
1630.061523	2462.489502
1629.029297	2469.314941
1627.996094	2510.024170
1626.962891	2565.239258
1625.929688	2400.250244
1624.896484	2409.500488
1623.863281	2413.909912
1622.829102	2449.755859
1621.794922	2461.410156
1620.760742	2506.904541
1619.726562	2400.109619
1618.692383	2518.096680
1617.657227	2425.834717
1616.622070	2451.976807
1615.587891	2410.480713
1614.551758	2458.349854
1613.516602	2513.445312
1612.481445	2389.883301
1611.445312	2374.976807
1610.409180	2521.757812
1609.373047	2502.007568
1608.336914	2458.141113
1607.300781	2452.880371
1606.263672	2505.496094
1605.226562	2497.817383
1604.189453	2523.889648
1603.152344	2443.905518
1602.115234	2448.290283
1601.077148	2551.455078
1600.039062	2411.286377
1599.000977	2454.209473
1597.962891	2554.909668
1596.924805	2523.156494
1595.885742	2424.013916
1594.847656	2476.530762
1593.808594	2452.027100
1592.769531	2415.502441
1591.730469	2472.803467
1590.690430	2530.083984
1589.651367	2385.358154
1588.611328	2469.079346
1587.571289	2497.484863
1586.531250	2456.183838
1585.490234	2458.149658
1584.450195	2474.529297
1583.409180	2411.635986
1582.368164	2519.278564
1581.327148	2502.021729
1580.285156	2419.950928
1579.244141	2419.520020
1578.202148	2553.483154
1577.160156	2435.454590
1576.118164	2463.809326
1575.076172	2518.538574
1574.033203	2575.646240
1572.991211	2520.039062
1571.948242	2500.411621
1570.905273	2392.105713
1569.862305	2418.040771
1568.818359	2446.362549
1567.775391	2496.234619
1566.731445	2416.748535
1565.687500	2425.896973
1564.643555	2442.225098
1563.598633	2520.788818
1562.554688	2520.339600
1561.509766	2589.289062
1560.464844	2459.625488
1559.419922	2394.597656
1558.374023	2432.439209
1557.329102	2479.832520
1556.283203	2531.990967
1555.237305	2514.805908
1554.191406	2402.024170
1553.145508	2487.623047
1552.098633	2389.221436
1551.052734	2405.516846
1550.005859	2510.176270
1548.958984	2438.090332
1547.912109	2499.730713
1546.864258	2494.510742
1545.816406	2491.679199
1544.769531	2460.213623
1543.721680	2433.530762
1542.672852	2473.648193
1541.625000	2573.375244
1540.576172	2432.228516
1539.528320	2458.019775
1538.479492	2526.708008
1537.430664	2519.107178
1536.380859	2397.133057
1535.332031	2339.527344
1534.282227	2451.063232
1533.232422	2495.875244
1532.182617	2414.471191
1531.132812	2471.177246
1530.082031	2430.271240
1529.031250	2458.395752
1527.981445	2405.609131
1526.929688	2414.695557
1525.878906	2649.744385
1524.828125	2354.379395
1523.776367	2484.734375
1522.724609	2498.554443
1521.672852	2460.078125
1520.621094	2457.262207
1519.569336	2378.414062
1518.516602	2489.643066
1517.463867	2451.195312
1516.411133	2500.627441
1515.358398	2440.822266
1514.305664	2404.777344
1513.251953	2487.419922
1512.198242	2394.425781
1511.144531	2372.644043
1510.090820	2386.453369
1509.037109	2371.796143
1507.982422	2404.571533
1506.927734	2408.883545
1505.873047	2391.859375
1504.818359	2448.314209
1503.763672	2447.876465
1502.708984	2466.392822
1501.653320	2465.951904
1500.597656	2479.721436
1499.541992	2353.774902
1498.486328	2386.500000
1497.429688	2509.164307
1496.373047	2437.714111
1495.317383	2479.871338
1494.260742	2481.793701
1493.203125	2474.253418
1492.146484	2431.240479
1491.088867	2404.794922
1490.031250	2385.451416
1488.973633	2373.205811
1487.916016	2405.867920
1486.858398	2490.501953
1485.799805	2454.619141
1484.741211	2432.921387
1483.682617	2415.954590
1482.624023	2410.799805
1481.565430	2476.470459
1480.505859	2466.585693
1479.446289	2492.103760
1478.386719	2413.793213
1477.327148	2479.416016
1476.267578	2403.494385
1475.207031	2391.272705
1474.147461	2421.496582
1473.086914	2376.271973
1472.026367	2392.345459
1470.964844	2422.552490
1469.904297	2342.009766
1468.842773	2322.744385
1467.781250	2294.064941
1466.719727	2394.913818
1465.658203	2352.104492
1464.595703	2401.117920
1463.533203	2447.760254
1462.471680	2421.436523
1461.409180	2430.413818
1460.345703	2432.330566
1459.283203	2370.744629
1458.219727	2405.592529
1457.156250	2341.682129
1456.092773	2353.015625
1455.029297	2423.101318
1453.965820	2422.666992
1452.901367	2382.292969
1451.836914	2386.563965
1450.772461	2360.302002
1449.708008	2442.063721
1448.642578	2399.366943
1447.578125	2337.906982
1446.512695	2375.037842
1445.447266	2482.548828
1444.381836	2470.373535
1443.315430	2460.548096
1442.250000	2396.786621
1441.183594	2419.804443
1440.117188	2374.827637
1439.050781	2285.332520
1437.983398	2369.288818
1436.916992	2453.215088
1435.849609	2361.410889
1434.782227	2393.778564
1433.714844	2398.032715
1432.647461	2348.432861
1431.579102	2312.896729
1430.510742	2356.952393
1429.442383	2342.488525
1428.374023	2414.599854
1427.305664	2453.934570
1426.236328	2352.921875
1425.167969	2413.299805
1424.098633	2447.937256
1423.028320	2279.188477
1421.958984	2372.267822
1420.889648	2369.505127
1419.819336	2455.525391
1418.749023	2455.084473
1417.678711	2398.590820
1416.608398	2386.484375
1415.537109	2376.717041
1414.465820	2408.969971
1413.395508	2352.524902
1412.323242	2433.772461
1411.251953	2300.353516
1410.180664	2353.589844
1409.108398	2381.153320
1408.036133	2336.422119
1406.963867	2336.002197
1405.891602	2358.891602
1404.818359	2267.578369
1403.746094	2351.053711
1402.672852	2394.894775
1401.599609	2366.513428
1400.525391	2447.597168
1399.452148	2323.751465
1398.377930	2386.189453
1397.303711	2385.760498
1396.229492	2355.078613
1395.155273	2384.902832
1394.081055	2305.379395
1393.005859	2363.112305
1391.930664	2420.824219
1390.855469	2290.185547
1389.780273	2364.162354
1388.704102	2447.409180
1387.628906	2381.902344
1386.552734	2446.529053
1385.476562	2355.492920
1384.400391	2401.520264
1383.323242	2359.289795
1382.247070	2293.857422
1381.169922	2386.296631
1380.092773	2351.053955
1379.014648	2466.654297
1377.937500	2357.168213
1376.859375	2426.332764
1375.782227	2446.769043
1374.704102	2332.707764
1373.625000	2392.565674
1372.546875	2371.273438
1371.467773	2363.894043
1370.388672	2259.197754
1369.309570	2358.409668
1368.230469	2425.157471
1367.151367	2383.035156
1366.071289	2361.766846
1364.991211	2280.315186
1363.911133	2377.118652
1362.831055	2448.430908
1361.750977	2323.045410
1360.669922	2422.102051
1359.588867	2361.528809
1358.507812	2374.978760
1357.426758	2374.551025
1356.345703	2496.643555
1355.263672	2313.601807
1354.181641	2400.998291
1353.099609	2372.840088
1352.017578	2208.399658
1350.935547	2288.838623
1349.852539	2362.320801
1348.769531	2366.512695
1347.686523	2234.508789
1346.603516	2303.344727
1345.520508	2397.538818
1344.436523	2214.843506
1343.352539	2431.275391
1342.268555	2338.584961
1341.184570	2432.704590
1340.100586	2413.822266
1339.015625	2321.185059
1337.930664	2341.508057
1336.845703	2327.260498
1335.760742	2398.258789
1334.675781	2324.117920
1333.589844	2404.302734
1332.503906	2320.977051
1331.417969	2355.090332
1330.332031	2421.415527
1329.246094	2356.541992
1328.159180	2356.116943
1327.072266	2311.982666
1325.985352	2336.866211
1324.898438	2272.054443
1323.811523	2299.235107
1322.723633	2365.486084
1321.635742	2362.760742
1320.547852	2261.222656
1319.459961	2267.707275
1318.371094	2315.538330
1317.283203	2296.746338
1316.194336	2319.294922
1315.105469	2309.692627
1314.016602	2350.594727
1312.926758	2384.596680
1311.837891	2358.924561
1310.748047	2344.733154
1309.658203	2314.489502
1308.568359	2325.538818
1307.477539	2366.393066
1306.387695	2265.091064
1305.296875	2296.772705
1304.206055	2367.402832
1303.114258	2286.777344
1302.023438	2297.819092
1300.931641	2304.275391
1299.840820	2370.272461
1298.748047	2269.097168
1297.656250	2332.787354
1296.564453	2346.099121
1295.471680	2320.501953
1294.378906	2340.675049
1293.286133	2239.595947
1292.193359	2316.956787
1291.099609	2362.274170
1290.006836	2311.546387
1288.913086	2267.694824
1287.819336	2267.284668
1286.725586	2324.003662
1285.630859	2380.702148
1284.536133	2309.457275
1283.442383	2235.954346
1282.346680	2283.503662
1281.251953	2264.825928
1280.157227	2257.568115
1279.061523	2250.312988
1277.965820	2306.952393
1276.870117	2263.187500
1275.774414	2290.150391
1274.677734	2346.751465
1273.581055	2321.244629
1272.485352	2309.425781
1271.387695	2238.347168
1270.291016	2301.753174
1269.194336	2271.715332
1268.096680	2280.416748
1266.999023	2282.281738
1265.901367	2256.818115
1264.803711	2240.471436
1263.705078	2349.337402
1262.606445	2266.973145
1261.507812	2316.627441
1260.409180	2225.197754
1259.310547	2211.145752
1258.210938	2347.211182
1257.111328	2180.782959
1256.011719	2300.889160
1254.912109	2295.926025
1253.812500	2252.327148
1252.711914	2274.643066
1251.612305	2287.862793
1250.511719	2301.077637
1249.410156	2273.406982
1248.309570	2288.890137
1247.208008	2340.692627
1246.107422	2244.932861
1245.005859	2178.710693
1243.903320	2300.846191
1242.801758	2211.951172
1241.699219	2272.793213
1240.597656	2236.095703
1239.495117	2299.178711
1238.391602	2301.028809
1237.289062	2205.414062
1236.185547	2232.208740
1235.082031	2277.119629
1233.978516	2324.279785
1232.875000	2262.704346
1231.771484	2269.087646
1230.666992	2250.562988
1229.562500	2297.693359
1228.458008	2197.690186
1227.353516	2324.014893
1226.248047	2214.993164
1225.143555	2230.426025
1224.038086	2313.703857
1222.931641	2238.661865
1221.826172	2272.168701
1220.720703	2215.245117
1219.614258	2230.663574
1218.507812	2266.412842
1217.401367	2259.223877
1216.294922	2283.660889
1215.187500	2292.280029
1214.080078	2224.124268
1212.972656	2323.054199
1211.865234	2223.316895
1210.757812	2132.642578
1209.649414	2245.073242
1208.541016	2314.599854
1207.432617	2266.813477
1206.324219	2248.360840
1205.215820	2293.046875
1204.106445	2261.070312
1202.997070	2258.405762
1201.887695	2239.967529
1200.778320	2286.875488
1199.668945	2232.395996
1198.558594	2231.990479
1197.448242	2272.118408
1196.337891	2204.162354
1195.227539	2273.543945
1194.117188	2264.128418
1193.005859	2277.218262
1191.894531	2166.563965
1190.783203	2202.160645
1189.671875	2179.270508
1188.559570	2266.569092
1187.447266	2261.660645
1186.334961	2166.843506
1185.222656	2215.891602
1184.110352	2186.278320
1182.998047	2152.182861
1181.884766	2212.437012
1180.771484	2182.840332
1179.658203	2222.859131
1178.543945	2213.475342
1177.430664	2251.229248
1176.316406	2194.717773
1175.202148	2174.125488
1174.087891	2205.135742
1172.972656	2213.706055
1171.858398	2199.848633
1170.743164	2136.671143
1169.627930	2308.888672
1168.512695	2315.192383
1167.396484	2247.546387
1166.281250	2276.262939
1165.165039	2327.368896
1164.048828	2158.975342
1162.931641	2192.170166
1161.815430	2256.696045
1160.698242	2207.041016
1159.581055	2249.160645
1158.463867	2219.663086
1157.346680	2297.559326
1156.228516	2169.646484
1155.111328	2285.541260
1153.993164	2193.451660
1152.875000	2148.341797
1151.755859	2215.004150
1150.637695	2210.131348
1149.518555	2176.214355
1148.399414	2204.858643
1147.280273	2271.461914
1146.160156	2288.912842
1145.041016	2192.490723
1143.920898	2238.968994
1142.800781	2191.691895
1141.680664	2166.746582
1140.559570	2204.279541
1139.439453	2208.339355
1138.318359	2123.187744
1137.197266	2158.478271
1136.075195	2182.608398
1134.954102	2168.836670
1133.832031	2177.355713
1132.709961	2161.361328
1131.587891	2134.233887
1130.465820	2196.211670
1129.342773	2193.584473
1128.220703	2148.652832
1127.097656	2223.951172
1125.974609	2172.352783
1124.850586	2091.843506
1123.727539	2216.059814
1122.603516	2182.287354
1121.479492	2237.492920
1120.355469	2121.450195
1119.230469	2161.083496
1118.106445	2142.905762
1116.981445	2095.841797
1115.856445	2137.679688
1114.730469	2150.619873
1113.605469	2110.243896
1112.479492	2149.835205
1111.353516	2125.017334
1110.227539	2213.433350
1109.101562	2135.340332
1107.974609	2099.441895
1106.848633	2114.591064
1105.721680	2222.910156
1104.594727	2158.180420
1103.466797	2179.963135
1102.339844	2161.826904
1101.211914	2210.203125
1100.083984	2212.015869
1098.956055	2120.754150
1097.827148	2131.445068
1096.699219	2082.320801
1095.570312	2097.444092
1094.441406	2143.563965
1093.311523	2070.109863
1092.182617	2096.295166
1091.052734	2104.764893
1089.922852	2203.956787
1088.792969	2146.031738
1087.663086	2156.699463
1086.532227	2112.073486
1085.402344	2065.252686
1084.271484	2124.566406
1083.139648	2186.068848
1082.008789	2152.519775
1080.876953	2105.725098
1079.746094	2147.314453
1078.614258	2144.713379
1077.481445	2199.530273
1076.349609	2113.017822
1075.216797	2187.688232
1074.083984	2138.730957
1072.951172	2195.715332
1071.818359	2171.043945
1070.685547	2126.528076
1069.551758	2132.755859
1068.417969	2150.006836
1067.284180	2098.904785
1066.149414	2120.564209
1065.015625	2093.729248
1063.880859	2159.451904
1062.746094	2165.666016
1061.611328	2158.661621
1060.476562	2134.041260
1059.340820	2168.881348
1058.205078	2131.058838
1057.069336	2201.104248
1055.933594	2136.881104
1054.796875	2169.494385
1053.661133	2129.499268
1052.524414	2170.899658
1051.387695	2188.094971
1050.250000	2183.297119
1049.113281	2174.104248
1047.975586	2094.582275
1046.837891	2135.950928
1045.700195	2150.939453
1044.561523	2119.791992
1043.423828	2196.273438
1042.285156	2070.706543
1041.146484	2112.041260
1040.007812	2085.313477
1038.868164	2093.710205
1037.728516	2132.823242
1036.589844	2143.401855
1035.449219	2125.461426
1034.309570	2100.948486
1033.169922	2135.645996
1032.029297	2122.101074
1030.888672	2148.014404
1029.748047	2143.237793
1028.606445	2083.686768
1027.465820	2028.538696
1026.324219	2229.669434
1025.182617	2023.415405
1024.041016	2095.295898
1022.898438	2092.722900
1021.756836	2157.998291
1020.614258	2122.590820
1019.471680	2063.130127
1018.328125	2152.436523
1017.185547	2005.510498
1016.041992	2101.354492
1014.898438	2151.252441
1013.754883	2194.574463
1012.610352	2255.364014
1011.466797	2185.029297
1010.322266	2178.074463
1009.177734	2088.121582
1008.033203	2137.966553
1006.887695	2098.272461
1005.742188	2117.534668
1004.597656	2143.337646
1003.451172	2138.579834
1002.305664	2120.732666
1001.160156	2070.170898
1000.013672	2087.239014
998.867188	2019.256592
997.720703	2114.815674
996.573242	2195.080811
995.426758	2090.065430
994.279297	2096.218750
993.131836	2182.978760
991.983398	2091.092529
990.835938	2129.909424
989.687500	2088.147217
988.539062	2153.074219
987.390625	2154.855469
986.242188	2143.578613
985.092773	2086.613281
983.944336	2140.615479
982.794922	2122.822021
981.644531	2137.654541
980.495117	2182.920410
979.344727	2099.913818
978.194336	2164.730713
977.043945	2136.083496
975.893555	2174.798340
974.742188	2170.054199
973.591797	2024.142822
972.440430	2043.313599
971.289062	2151.489258
970.136719	2120.705078
968.985352	2202.783936
967.833008	2061.339844
966.680664	2143.399170
965.528320	2103.962402
964.375000	2162.128662
963.221680	2114.029785
962.069336	2102.801758
960.915039	2119.754639
959.761719	2063.021484
958.608398	2112.474854
957.454102	2135.914795
956.299805	2172.341309
955.145508	2132.963623
953.990234	2156.386475
952.834961	2164.648438
951.680664	2090.665527
950.525391	2111.919189
949.369141	2161.290039
948.213867	2067.880859
947.057617	2045.873657
945.901367	2095.229004
944.745117	2099.166992
943.588867	2113.910889
942.431641	2186.997803
941.274414	2046.151733
940.117188	2194.833496
938.959961	2146.912109
937.801758	2178.908936
936.644531	2131.008057
935.486328	2204.010498
934.328125	2151.805908
933.168945	2080.199219
932.010742	2194.162842
930.851562	2081.590088
929.692383	2176.100830
928.533203	2106.698486
927.373047	2099.842773
926.213867	2144.721191
925.053711	2111.999512
923.893555	2122.383789
922.732422	2117.684082
921.572266	2078.523193
920.411133	2078.140137
919.250000	2045.460327
918.088867	2120.428467
916.926758	2096.362061
915.765625	2093.823486
914.603516	2102.043457
913.441406	2093.051514
912.279297	2073.308838
911.116211	2124.534668
909.953125	2078.993896
908.790039	2085.059082
907.626953	2131.955811
906.463867	2043.463745
905.299805	2103.240723
904.135742	2180.179199
902.971680	2029.447632
901.807617	2095.635254
900.643555	2069.487305
899.478516	2114.179443
898.313477	2145.978760
897.148438	2102.671143
895.982422	2104.428223
894.817383	2076.157471
893.651367	2050.041504
892.485352	2051.807129
891.319336	2128.598145
890.152344	2066.052002
888.986328	2138.526123
887.819336	2120.991943
886.652344	2101.322266
885.484375	2094.509277
884.317383	2115.534668
883.149414	2132.270752
881.981445	2110.472412
880.813477	2063.001709
879.644531	2060.480957
878.475586	2083.632080
877.307617	2068.275146
876.137695	2070.031494
874.968750	2097.443848
873.798828	2028.650757
872.629883	2105.217773
871.459961	2134.745117
870.289062	2104.439697
869.119141	2151.044922
867.948242	2090.847656
866.777344	2043.484619
865.606445	2105.019043
864.435547	2079.015869
863.263672	2104.240967
862.092773	2059.043701
860.920898	2052.262939
859.748047	2079.611572
858.576172	2160.263428
857.403320	2142.806885
856.230469	2101.907227
855.057617	2137.751465
853.884766	2175.713379
852.710938	2098.610352
851.538086	2055.618652
850.364258	2053.108643
849.189453	2157.068604
848.015625	2124.734619
846.840820	2139.241699
845.666016	2136.717529
844.491211	2089.510254
843.316406	2044.447754
842.140625	2037.688354
840.965820	2107.489990
839.790039	2130.488281
838.613281	2149.226562
837.437500	2121.197754
836.260742	2095.304443
835.083984	2069.420410
833.907227	2058.416016
832.730469	2104.760010
831.552734	2153.210205
830.375977	2067.887939
829.198242	2090.854736
828.019531	2122.301758
826.841797	2132.518311
825.663086	2174.553467
824.484375	2068.094482
823.305664	2074.073486
822.126953	2152.141602
820.947266	2128.423584
819.767578	2121.670410
818.587891	2095.847412
817.408203	2167.497070
816.228516	2109.899170
815.047852	2043.850708
813.867188	2121.822510
812.686523	2138.366699
811.504883	2135.853516
810.324219	2021.171387
809.142578	2162.569824
807.960938	2119.856445
806.779297	2068.697754
805.596680	2089.462402
804.415039	2112.333740
803.232422	2084.459229
802.048828	2103.095703
800.866211	2170.330322
799.682617	2148.798828
798.500000	2150.512695
797.315430	2103.647705
796.131836	2164.496582
794.948242	2050.084229
793.763672	2108.809570
792.579102	2066.207520
791.394531	2143.899170
790.208984	2116.074707
789.024414	2170.525146
787.838867	2083.654785
786.653320	2129.656494
785.466797	2118.720215
784.281250	2112.003418
783.094727	2096.859619
781.908203	2128.075439
780.721680	2112.933838
779.534180	2118.860107
778.347656	2192.170654
777.160156	2092.807861
775.972656	2090.314209
774.784180	2060.460693
773.596680	2079.016357
772.408203	2131.227051
771.219727	2143.451904
770.031250	2100.991699
768.841797	2119.525635
767.653320	2064.471680
766.463867	2219.630371
765.274414	2120.445801
764.083984	2201.996338
762.894531	2096.549561
761.704102	2167.572021
760.513672	2137.769531
759.322266	2112.177002
758.131836	2147.470703
756.940430	2096.700195
755.749023	2110.999268
754.557617	2135.782959
753.365234	2133.288086
752.173828	2134.988525
750.981445	2193.303223
749.789062	2100.651123
748.595703	2022.705933
747.403320	2022.329590
746.209961	2109.955566
745.016602	2151.460938
743.823242	2102.886963
742.628906	2112.966309
741.435547	2198.416016
740.241211	2212.660400
739.046875	2141.088135
737.851562	2180.448486
736.657227	2127.738281
735.461914	2085.506592
734.266602	2143.677246
733.070312	2124.459229
731.875000	2121.973145
730.678711	2109.036621
729.482422	2129.542236
728.286133	2147.950928
727.089844	2135.016602
725.892578	2203.544922
724.695312	2213.575928
723.498047	2208.987793
722.300781	2110.463867
721.102539	2220.687744
719.904297	2214.013916
718.706055	2173.960938
717.507812	2231.962402
716.308594	2235.717773
715.110352	2243.641846
713.911133	2209.867188
712.711914	2244.889893
711.511719	2261.143555
710.311523	2304.478027
709.112305	2270.717041
707.912109	2343.192871
706.710938	2330.261475
705.510742	2290.267822
704.309570	2314.821045
703.108398	2383.071777
701.907227	2395.112793
700.705078	2344.733887
699.502930	2398.379883
698.301758	2422.889160
697.098633	2389.167725
695.896484	2453.169922
694.693359	2494.283691
693.491211	2437.707520
692.287109	2449.719482
691.083984	2480.423584
689.880859	2529.809082
688.676758	2502.340820
687.472656	2620.219727
686.268555	2679.930664
685.063477	2704.336182
683.858398	2633.278564
682.654297	2612.040039
681.448242	2663.410156
680.243164	2723.056641
679.037109	2718.401123
677.832031	2736.552002
676.625977	2758.841309
675.418945	2776.977539
674.212891	2795.106934
673.005859	2775.940430
671.798828	2748.496338
670.591797	2787.328613
669.383789	2836.498535
668.176758	2809.057861
666.968750	2775.418457
665.760742	2810.077637
664.551758	2737.141602
663.343750	2740.767090
662.134766	2734.050537
660.925781	2646.695068
659.715820	2772.308350
658.506836	2705.647705
657.296875	2659.677246
656.086914	2723.231934
654.876953	2644.222656
653.666016	2616.877930
652.456055	2657.689209
651.245117	2597.317627
650.034180	2536.968750
648.822266	2563.324463
647.611328	2597.924316
646.399414	2620.132568
645.187500	2489.691895
643.974609	2551.095947
642.762695	2571.238037
641.549805	2436.756104
640.336914	2531.114014
639.124023	2402.872070
637.910156	2406.543213
636.696289	2311.332520
635.483398	2422.119629
634.268555	2382.540771
633.054688	2365.624023
631.839844	2369.298340
630.625000	2360.622559
629.410156	2360.180664
628.195312	2427.630127
626.979492	2320.215332
625.764648	2375.307617
624.548828	2245.324951
623.332031	2298.354736
622.116211	2260.927246
620.899414	2320.099121
619.682617	2307.336914
618.465820	2239.114990
617.248047	2327.010986
616.031250	2312.200928
614.813477	2276.865479
613.595703	2282.596924
612.376953	2341.686279
611.159180	2294.053223
609.940430	2223.871094
608.721680	2315.756348
607.502930	2192.276123
606.283203	2259.528076
605.063477	2281.654541
603.843750	2281.226807
602.624023	2303.340820
601.403320	2296.762451
600.183594	2320.913574
598.962891	2308.189941
597.742188	2309.804932
596.520508	2301.182617
595.299805	2290.516357
594.078125	2273.714355
592.856445	2160.749023
591.633789	2313.777100
590.412109	2219.254883
589.189453	2284.279053
587.966797	2257.270508
586.743164	2262.979736
585.520508	2309.563965
584.296875	2239.652344
583.073242	2310.740479
581.849609	2253.110840
580.625000	2230.222412
579.401367	2280.852539
578.176758	2247.759277
576.952148	2196.308105
575.726562	2222.426025
574.500977	2270.978760
573.276367	2241.991943
572.049805	2241.571045
570.824219	2196.286377
569.598633	2244.807129
568.372070	2201.577148
567.145508	2262.307129
565.917969	2227.240723
564.691406	2241.083984
563.463867	2232.515137
562.236328	2297.266357
561.008789	2258.146973
559.780273	2265.865967
558.552734	2293.936523
557.324219	2271.119873
556.094727	2321.559814
554.866211	2260.094971
553.636719	2298.314453
552.407227	2303.982910
551.177734	2283.218506
549.948242	2331.575684
548.717773	2276.263184
547.488281	2304.283203
546.256836	2344.482178
545.026367	2327.791504
543.795898	2361.878174
542.564453	2367.525391
541.333008	2397.531494
540.100586	2324.011230
538.869141	2360.102051
537.636719	2392.121094
536.404297	2280.100342
535.171875	2346.601318
533.939453	2283.298340
532.706055	2351.800781
531.472656	2363.520508
530.239258	2316.462646
529.004883	2301.843018
527.771484	2459.429199
526.537109	2432.634521
525.302734	2320.794922
524.067383	2328.457031
522.833008	2354.335449
521.597656	2390.323975
520.362305	2304.882568
519.126953	2355.029053
517.890625	2388.973877
516.654297	2327.850342
515.417969	2456.824951
514.181641	2335.060547
512.944336	2348.770020
511.708008	2372.578857
510.470703	2329.700195
509.233398	2272.696533
507.995117	2280.347412
506.756836	2290.014893
505.518555	2285.545410
504.280273	2293.189453
503.041992	2280.647705
501.802734	2284.253662
500.563477	2271.718018
499.324219	2251.118652
498.084961	2363.632324
496.844727	2304.712158
495.604492	2296.213623
494.364258	2263.531006
493.124023	2297.363037
491.882812	2349.316162
490.642578	2278.366699
489.401367	2223.556641
488.159180	2335.905029
486.917969	2323.384521
485.675781	2312.881592
484.433594	2260.118408
483.191406	2338.167480
481.948242	2327.667480
480.705078	2228.667969
479.462891	2206.125977
478.218750	2304.232910
476.975586	2229.416992
475.731445	2287.283936
474.487305	2280.823730
473.243164	2232.173340
471.999023	2277.954102
470.753906	2179.112549
469.508789	2261.030029
468.263672	2230.488525
467.018555	2284.263428
465.772461	2251.722168
464.526367	2253.303467
463.280273	2244.853516
462.034180	2218.354736
460.787109	2250.021729
459.540039	2155.362305
458.292969	2177.005859
457.045898	2218.683594
455.797852	2158.148926
454.550781	2255.911377
453.302734	2225.438721
452.053711	2132.893311
450.805664	2150.511230
449.556641	2168.122559
448.307617	2183.725342
447.058594	2191.317627
445.808594	2162.891846
444.559570	2150.480225
443.309570	2120.072754
442.059570	2163.665283
440.808594	2127.268555
439.557617	2236.807617
438.307617	2074.501709
437.055664	2088.096680
435.804688	2161.620361
434.552734	2135.245117
433.300781	2134.841309
432.048828	2108.480713
430.796875	2163.978027
429.543945	2093.711914
428.291016	2119.257568
427.038086	2116.861572
425.785156	2104.492432
424.531250	2114.066162
423.278320	2111.672119
422.023438	2147.158203
420.769531	2049.081543
419.515625	2062.644043
418.260742	2161.879395
417.005859	2063.855225
415.750000	2131.184570
414.495117	2156.668945
413.239258	2042.773315
411.983398	2060.302246
410.727539	2169.375977
409.470703	2149.066406
408.214844	2164.575439
406.958008	2098.524414
405.700195	2143.868164
404.443359	2083.811035
403.185547	2087.392090
401.927734	2059.170166
400.669922	2132.307861
399.411133	2040.508179
398.153320	2036.148560
396.894531	2075.484863
395.635742	2081.048828
394.375977	2138.229736
393.116211	2072.320068
391.857422	2063.988770
390.596680	2099.313721
389.336914	2102.883545
388.076172	2040.997070
386.815430	2080.272217
385.554688	2034.275024
384.293945	2091.377441
383.032227	2069.179199
381.770508	2138.142578
380.508789	2094.150146
379.247070	2182.891113
377.984375	2144.848145
376.721680	2045.436523
375.458984	2033.170166
374.196289	2034.763794
372.932617	2052.188477
371.668945	2071.584961
370.405273	2090.973877
369.141602	2033.219849
367.876953	2070.405762
366.613281	2083.852539
365.347656	2111.130859
364.083008	2077.132324
362.818359	2070.810303
361.552734	2056.587891
360.287109	2152.982910
359.020508	2113.077393
357.754883	2098.854980
356.488281	2133.989990
355.221680	2113.847412
353.955078	2075.952637
352.687500	2045.963867
351.419922	2098.835205
350.152344	2078.714355
348.884766	2076.347412
347.616211	2144.954346
346.348633	2150.459961
345.080078	2086.988525
343.810547	2092.502930
342.541992	2188.633789
341.272461	2127.160400
340.002930	2122.817627
338.733398	2177.541748
337.462891	2096.420654
336.193359	2033.042969
334.922852	2129.074951
333.651367	2103.094482
332.380859	2033.850586
331.109375	2068.862549
329.837891	2086.165283
328.566406	2085.768555
327.293945	2173.818359
326.022461	2047.638184
324.750000	2145.485107
323.477539	2060.609863
322.204102	2126.993164
320.930664	2126.588379
319.657227	2153.669189
318.383789	2078.670654
317.110352	2088.087402
315.835938	2097.500732
314.561523	2104.948486
313.287109	2012.363525
312.011719	2080.615234
310.737305	2111.589111
309.461914	1960.248047
308.185547	2120.584717
306.910156	2135.856934
305.633789	2059.044189
304.357422	2033.188354
303.081055	2118.969971
301.804688	2018.707886
300.527344	2055.518555
299.250000	2008.152710
297.972656	2052.778564
296.694336	2001.518066
295.416992	2079.382568
294.138672	2006.622803
292.860352	2092.278076
291.581055	2074.284180
290.301758	2071.934326
289.022461	2100.853760
287.743164	2077.006348
286.463867	2074.656982
285.183594	1978.556396
283.903320	2066.054932
282.623047	2092.994873
281.342773	2071.123291
280.061523	2111.713623
278.780273	2123.018799
277.499023	2101.153809
276.216797	2053.939697
274.935547	2121.804443
273.653320	2060.955566
272.370117	2080.056885
271.087891	2103.048828
269.804688	2092.904297
268.521484	2147.058105
267.238281	2045.354736
265.955078	2101.444336
264.670898	2091.307373
263.386719	2139.579346
262.102539	2072.990967
260.817383	2191.307373
259.533203	2122.788574
258.248047	2067.913574
256.962891	2155.042969
255.676758	2242.139160
254.390625	2208.658936
253.104492	2262.665771
251.818359	2180.606689
250.532227	2261.801758
249.245117	2210.857910
247.958008	2301.728027
246.670898	2264.389893
245.382812	2314.440186
244.095703	2279.055176
242.807617	2336.846924
241.518555	2293.708740
240.230469	2363.116211
238.941406	2341.327148
237.652344	2383.546875
236.363281	2369.518066
235.074219	2497.017822
233.784180	2380.242188
232.494141	2381.725098
231.204102	2352.206299
229.913086	2506.732422
228.622070	2347.433350
227.331055	2410.887695
226.040039	2348.471924
224.749023	2305.437256
223.457031	2339.832520
222.165039	2194.261963
220.873047	2253.814941
219.580078	2172.145996
218.287109	2133.053223
216.994141	2211.918457
215.701172	2165.100342
214.407227	2137.627441
213.114258	2102.435547
211.820312	2142.605469
210.525391	2086.177734
209.231445	2056.809326
207.936523	1994.626709
206.641602	1992.314331
205.346680	2040.187256
204.050781	2045.586060
202.754883	2023.970703
201.458984	2039.015747
200.163086	1932.547363
198.866211	1955.317139
197.569336	1995.429688
196.272461	1987.337280
194.975586	1936.849121
193.677734	1969.234497
192.379883	2001.607300
191.082031	1983.888916
189.784180	1950.771362
188.485352	2063.994385
187.187500	1957.723877
185.887695	1968.896606
184.588867	1945.428101
183.289062	1870.023560
181.989258	1848.506348
180.689453	1930.847778
179.389648	1867.025635
178.088867	1970.478394
176.788086	1948.958130
175.487305	1902.464111
174.186523	1886.728882
172.884766	1911.339355
171.583008	1918.655151
170.281250	1899.085083
168.979492	1846.885254
167.676758	1850.369995
166.374023	1863.448730
165.071289	1901.465942
163.767578	1891.509399
162.463867	1843.196533
161.160156	1890.783691
159.856445	1946.021484
158.552734	1901.559448
157.248047	1914.610229
155.943359	1851.009644
154.638672	1913.875488
153.333008	1863.707031
152.027344	1892.075195
150.721680	1891.711914
149.416016	1895.177368
148.110352	1925.436768
146.803711	1917.412720
145.497070	1827.123291
144.189453	1907.112183
142.882812	1830.246582
141.575195	1845.192017
140.267578	1915.572266
138.959961	1821.546631
137.651367	1859.416992
136.342773	1809.382935
135.034180	1772.739990
133.725586	1837.336426
132.416016	1833.164307
131.106445	1689.623657
129.796875	1754.198486
128.487305	1759.586670
127.176758	1770.697021
125.866211	1676.878784
124.555664	1712.796021
123.244141	1699.117798
121.933594	1578.674683
120.622070	1624.120972
119.309570	1574.255859
117.998047	1512.976685
116.685547	1421.238770
115.373047	1251.440063
114.060547	1136.934570
112.748047	1020.569031
111.434570	869.981934
110.121094	713.742859
108.806641	576.593262
107.493164	437.593842
106.178711	389.954254
104.864258	268.160828
103.549805	205.360245
102.234375	148.287186
100.918945	100.739853
99.603516	68.413895
