#Wave		#Intensity
1998.943359	547.653076
1997.975586	545.069824
1997.007812	513.980957
1996.039062	524.220886
1995.071289	524.129517
1994.102539	544.689880
1993.133789	521.365784
1992.165039	547.080566
1991.196289	513.443665
1990.227539	503.035492
1989.257812	528.739990
1988.288086	505.438843
1987.318359	585.278625
1986.348633	580.020874
1985.378906	530.948730
1984.409180	536.010071
1983.438477	561.681763
1982.467773	548.703491
1981.497070	509.973419
1980.526367	558.812744
1979.555664	509.795532
1978.584961	571.489197
1977.613281	548.225098
1976.641602	550.702820
1975.669922	530.023315
1974.698242	565.945557
1973.726562	558.130676
1972.753906	550.318542
1971.782227	537.366882
1970.809570	565.550598
1969.836914	524.328125
1968.863281	542.225159
1967.890625	529.283813
1966.917969	542.035889
1965.944336	516.256836
1964.970703	557.254639
1963.997070	474.995880
1963.023438	526.254883
1962.048828	562.096130
1961.075195	536.335938
1960.100586	505.453278
1959.125977	510.495636
1958.151367	536.055054
1957.176758	564.169922
1956.201172	520.484070
1955.226562	569.099915
1954.250977	556.185181
1953.275391	522.773987
1952.299805	548.304382
1951.323242	555.893799
1950.347656	525.061401
1949.371094	540.334595
1948.394531	524.877930
1947.417969	601.584229
1946.441406	547.729919
1945.464844	552.752258
1944.487305	544.979919
1943.509766	519.303223
1942.532227	534.558655
1941.554688	557.480469
1940.577148	516.474182
1939.599609	547.060181
1938.621094	559.744141
1937.642578	546.868958
1936.664062	516.113159
1935.685547	549.232361
1934.707031	508.270355
1933.727539	546.486633
1932.749023	569.370117
1931.769531	513.109375
1930.790039	553.856995
1929.810547	533.345032
1928.830078	525.597412
1927.850586	494.893524
1926.870117	558.570740
1925.889648	589.074341
1924.909180	515.031189
1923.928711	530.236328
1922.948242	537.789917
1921.966797	568.275635
1920.985352	522.314453
1920.003906	611.383118
1919.022461	539.960632
1918.041016	572.971130
1917.059570	537.225586
1916.077148	542.222839
1915.094727	514.130737
1914.112305	460.600861
1913.129883	539.393860
1912.147461	582.545166
1911.164062	549.378723
1910.180664	528.938782
1909.197266	577.154236
1908.213867	569.426941
1907.230469	574.410522
1906.247070	538.733215
1905.262695	543.720398
1904.278320	528.383362
1903.294922	561.309021
1902.309570	523.119507
1901.325195	520.488892
1900.340820	609.246155
1899.355469	530.458923
1898.370117	565.892944
1897.384766	548.033447
1896.399414	494.665771
1895.414062	522.478455
1894.427734	568.032349
1893.442383	557.791199
1892.456055	555.158508
1891.469727	544.923096
1890.482422	554.963928
1889.496094	549.799438
1888.508789	544.636719
1887.522461	600.261719
1886.535156	579.898071
1885.547852	554.477844
1884.559570	518.940796
1883.572266	531.504700
1882.583984	536.472595
1881.595703	576.859924
1880.607422	553.992004
1879.619141	594.362061
1878.630859	586.671570
1877.641602	561.285583
1876.653320	533.380615
1875.664062	543.396790
1874.674805	530.666565
1873.684570	548.259277
1872.695312	533.006531
1871.705078	545.541321
1870.715820	520.193481
1869.725586	552.924255
1868.735352	542.729919
1867.744141	540.110840
1866.753906	570.297363
1865.762695	532.352356
1864.771484	532.258972
1863.780273	580.085693
1862.789062	564.853882
1861.797852	554.669861
1860.805664	539.447815
1859.813477	524.231079
1858.821289	501.459961
1857.829102	592.072388
1856.836914	508.841003
1855.844727	521.344543
1854.851562	513.698608
1853.858398	566.479919
1852.865234	563.863220
1851.872070	551.180176
1850.878906	548.567017
1849.884766	556.018494
1848.890625	543.343445
1847.897461	613.669067
1846.903320	540.638000
1845.908203	560.656311
1844.914062	610.832092
1843.918945	542.866455
1842.923828	545.283936
1841.929688	479.866058
1840.933594	537.556519
1839.938477	517.370056
1838.943359	582.566833
1837.947266	577.443237
1836.951172	564.790833
1835.955078	567.201355
1834.958984	529.462158
1833.961914	541.913452
1832.965820	586.969727
1831.968750	531.691040
1830.971680	498.999634
1829.974609	508.940308
1828.977539	518.877441
1827.979492	568.910522
1826.982422	561.293213
1825.984375	553.678528
1824.986328	591.154541
1823.988281	568.510559
1822.989258	508.314301
1821.991211	535.764221
1820.992188	543.179382
1819.993164	543.083862
1818.994141	530.477112
1817.995117	552.900085
1816.995117	572.813782
1815.996094	582.716736
1814.996094	545.106934
1813.996094	530.010681
1812.996094	602.406189
1811.996094	562.313477
1810.995117	537.227234
1809.994141	574.607056
1808.993164	544.531738
1807.992188	559.420349
1806.991211	534.352173
1805.990234	534.258179
1804.988281	581.589905
1803.986328	549.044067
1802.984375	563.918701
1801.982422	548.850769
1800.980469	563.720154
1799.977539	556.139221
1798.975586	593.443237
1797.972656	533.506287
1796.969727	545.875244
1795.966797	538.302673
1794.962891	565.616638
1793.959961	553.060730
1792.956055	575.380737
1791.952148	537.923584
1790.948242	582.647949
1789.943359	594.992859
1788.939453	582.442688
1787.934570	510.169739
1786.929688	534.961792
1785.924805	559.745117
1784.919922	564.621155
1783.915039	529.705383
1782.909180	599.232361
1781.903320	529.518677
1780.897461	531.910950
1779.891602	551.698242
1778.885742	566.509155
1777.879883	571.377808
1776.873047	521.600830
1775.866211	556.276123
1774.859375	556.178101
1773.852539	531.255066
1772.844727	568.392334
1771.837891	565.810486
1770.830078	605.409729
1769.822266	513.515259
1768.814453	560.550659
1767.806641	545.572571
1766.797852	565.311829
1765.789062	557.775146
1764.781250	542.805420
1763.772461	609.619080
1762.762695	559.957764
1761.753906	488.018677
1760.744141	559.760254
1759.735352	557.185120
1758.725586	534.803345
1757.714844	554.513000
1756.705078	564.315430
1755.695312	497.400848
1754.684570	539.374390
1753.673828	564.016785
1752.663086	576.283875
1751.652344	514.360046
1750.640625	571.135559
1749.629883	553.730652
1748.618164	484.428802
1747.606445	585.660034
1746.594727	595.439453
1745.583008	565.691101
1744.570312	528.543762
1743.557617	585.246582
1742.545898	575.267395
1741.533203	597.382507
1740.519531	523.234436
1739.506836	530.544983
1738.493164	577.328369
1737.479492	540.224731
1736.465820	522.864868
1735.452148	510.442993
1734.438477	576.920593
1733.423828	537.378113
1732.410156	524.960144
1731.395508	537.188232
1730.380859	532.165833
1729.366211	618.287170
1728.350586	554.143555
1727.334961	541.733521
1726.320312	581.029602
1725.304688	541.542053
1724.288086	531.601868
1723.272461	568.418213
1722.256836	531.414001
1721.240234	553.458374
1720.223633	585.332520
1719.207031	592.605835
1718.190430	585.125549
1717.172852	560.441345
1716.155273	545.596436
1715.138672	582.358032
1714.121094	579.798279
1713.102539	542.850708
1712.084961	601.696411
1711.066406	572.124329
1710.048828	530.287537
1709.030273	564.558167
1708.011719	557.095825
1706.992188	603.618225
1705.973633	556.898743
1704.954102	544.535889
1703.934570	598.393066
1702.915039	556.603210
1701.895508	554.053162
1700.875977	558.857422
1699.855469	521.998108
1698.834961	575.811462
1697.814453	590.408508
1696.793945	605.000366
1695.773438	597.546448
1694.751953	570.506836
1693.730469	575.302063
1692.709961	575.200256
1691.687500	565.309509
1690.666016	587.230530
1689.644531	525.967590
1688.622070	579.684875
1687.599609	557.572754
1686.577148	552.583923
1685.554688	523.150513
1684.532227	562.164978
1683.508789	571.840454
1682.485352	625.492432
1681.461914	569.195007
1680.438477	598.403748
1679.415039	593.413696
1678.391602	546.918213
1677.367188	571.232971
1676.342773	517.435608
1675.318359	500.261841
1674.293945	566.049683
1673.268555	526.918396
1672.244141	580.483093
1671.218750	551.117371
1670.193359	577.839233
1669.167969	553.359741
1668.141602	594.695312
1667.116211	572.658325
1666.089844	540.883484
1665.063477	555.403442
1664.037109	552.869446
1663.010742	581.992798
1661.983398	555.108093
1660.957031	586.654968
1659.929688	535.440674
1658.902344	574.279968
1657.875000	544.982666
1656.846680	554.616089
1655.819336	564.246094
1654.791016	569.009338
1653.762695	564.045959
1652.734375	525.053101
1651.705078	568.706604
1650.676758	544.306335
1649.647461	592.799927
1648.618164	585.407532
1647.588867	536.730713
1646.559570	526.922607
1645.529297	623.940491
1644.500000	541.299744
1643.469727	514.507507
1642.439453	589.637451
1641.409180	557.994019
1640.377930	572.448730
1639.347656	545.669922
1638.316406	516.475830
1637.285156	509.111115
1636.253906	535.683716
1635.222656	545.282532
1634.190430	533.070496
1633.158203	537.821045
1632.125977	569.213989
1631.093750	571.534668
1630.061523	515.742615
1629.029297	588.277954
1627.996094	590.593933
1626.962891	580.808899
1625.929688	595.223328
1624.896484	558.829956
1623.863281	580.499390
1622.829102	532.029907
1621.794922	570.621582
1620.760742	572.937683
1619.726562	568.001770
1618.692383	596.900085
1617.657227	579.880798
1616.622070	611.182373
1615.587891	555.521606
1614.551758	572.327026
1613.516602	567.396362
1612.481445	617.989990
1611.445312	552.713135
1610.409180	562.267517
1609.373047	569.405762
1608.336914	557.242981
1607.300781	561.967651
1606.263672	569.102112
1605.226562	583.466980
1604.189453	491.760742
1603.152344	518.185120
1602.115234	515.683167
1601.077148	580.642761
1600.039062	611.854858
1599.000977	575.619263
1597.962891	541.804626
1596.924805	548.930969
1595.885742	582.533630
1594.847656	507.821167
1593.808594	565.482178
1592.769531	553.352173
1591.730469	601.362732
1590.690430	596.445679
1589.651367	589.125732
1588.611328	625.083374
1587.571289	569.686157
1586.531250	555.164856
1585.490234	540.648743
1584.450195	504.515656
1583.409180	605.311035
1582.368164	557.171265
1581.327148	564.275574
1580.285156	544.969116
1579.244141	597.679077
1578.202148	599.972534
1577.160156	580.669983
1576.118164	614.153076
1575.076172	508.504913
1574.033203	589.952515
1572.991211	565.869873
1571.948242	575.358398
1570.905273	520.127197
1569.862305	567.963989
1568.818359	599.011414
1567.775391	608.487122
1566.731445	553.289307
1565.687500	531.637817
1564.643555	581.824219
1563.598633	576.932678
1562.554688	557.682007
1561.509766	552.796509
1560.464844	576.624268
1559.419922	559.776062
1558.374023	595.552917
1557.329102	542.837036
1556.283203	521.221924
1555.237305	595.234497
1554.191406	540.156677
1553.145508	549.618958
1552.098633	554.299377
1551.052734	594.810059
1550.005859	606.645813
1548.958984	577.882324
1547.912109	563.454102
1546.864258	596.772888
1545.816406	582.346497
1544.769531	563.152649
1543.721680	601.225220
1542.672852	555.795593
1541.625000	488.917450
1540.576172	519.829224
1539.528320	610.332703
1538.479492	550.631653
1537.430664	588.665588
1536.380859	581.411987
1535.332031	578.925842
1534.282227	528.800781
1533.232422	542.995789
1532.182617	552.423401
1531.132812	618.984680
1530.082031	571.268433
1529.031250	571.166443
1527.981445	559.167297
1526.929688	559.067444
1525.878906	618.432312
1524.828125	577.893127
1523.776367	584.923096
1522.724609	587.195984
1521.672852	534.799561
1520.621094	553.715759
1519.569336	594.009521
1518.516602	544.015503
1517.463867	605.673279
1516.411133	558.069763
1515.358398	557.970032
1514.305664	581.609497
1513.251953	569.638123
1512.198242	522.075012
1511.144531	609.769531
1510.090820	552.727295
1509.037109	559.743896
1507.982422	580.986206
1506.927734	550.059998
1505.873047	554.702759
1504.818359	566.454102
1503.763672	566.352844
1502.708984	575.728577
1501.653320	589.838623
1500.597656	528.154602
1499.541992	532.796143
1498.486328	546.906250
1497.429688	530.238464
1496.373047	556.177490
1495.317383	565.543152
1494.260742	503.929504
1493.203125	506.204803
1492.146484	560.509705
1491.088867	553.315674
1490.031250	567.401733
1488.973633	501.115204
1487.916016	519.932190
1486.858398	552.919800
1485.799805	597.708008
1484.741211	581.066650
1483.682617	583.324341
1482.624023	595.026001
1481.565430	564.229187
1480.505859	498.037872
1479.446289	585.266785
1478.386719	575.723877
1477.327148	594.493652
1476.267578	549.572327
1475.207031	537.682617
1474.147461	591.816589
1473.086914	523.345642
1472.026367	605.746582
1470.964844	563.219910
1469.904297	541.913696
1468.842773	553.595276
1467.781250	567.627930
1466.719727	553.396973
1465.658203	590.969238
1464.595703	532.012390
1463.533203	576.635803
1462.471680	555.353760
1461.409180	508.198822
1460.345703	590.440063
1459.283203	517.424438
1458.219727	590.228455
1457.156250	585.420532
1456.092773	554.756958
1455.029297	547.606812
1453.965820	514.611145
1452.901367	592.049133
1451.836914	573.151184
1450.772461	551.911377
1449.708008	558.856873
1448.642578	532.931763
1447.578125	575.087585
1446.512695	563.250061
1445.447266	572.534912
1444.381836	579.470337
1443.315430	551.219055
1442.250000	544.084656
1441.183594	551.021362
1440.117188	548.578186
1439.050781	557.855530
1437.983398	597.595093
1436.916992	613.889526
1435.849609	592.695374
1434.782227	585.562317
1433.714844	599.508179
1432.647461	601.742065
1431.579102	568.860229
1430.510742	653.018616
1429.442383	613.118896
1428.374023	627.047241
1427.305664	603.541626
1426.236328	577.705505
1425.167969	549.540161
1424.098633	579.836182
1423.028320	516.616089
1421.958984	579.627991
1420.889648	509.420227
1419.819336	577.083496
1418.749023	544.276550
1417.678711	537.172241
1416.608398	551.086426
1415.537109	550.987488
1414.465820	569.562683
1413.395508	539.120300
1412.323242	541.356873
1411.251953	564.589783
1410.180664	580.816528
1409.108398	571.383484
1408.036133	547.963257
1406.963867	538.539429
1405.891602	510.471619
1404.818359	566.311951
1403.746094	524.268677
1402.672852	545.141418
1401.599609	591.628357
1400.525391	561.247314
1399.452148	498.279388
1398.377930	486.549866
1397.303711	605.168518
1396.229492	532.918030
1395.155273	551.436096
1394.081055	525.747437
1393.005859	525.652954
1391.930664	592.997314
1390.855469	555.689697
1389.780273	564.888367
1388.704102	534.571838
1387.628906	513.561401
1386.552734	580.847351
1385.476562	536.606384
1384.400391	550.445190
1383.323242	561.956848
1382.247070	585.072937
1381.169922	538.541626
1380.092773	531.482117
1379.014648	589.398071
1377.937500	542.891113
1376.859375	528.875610
1375.782227	582.122314
1374.704102	572.742371
1373.625000	563.365784
1372.546875	493.725555
1371.467773	574.750671
1370.388672	535.256104
1369.309570	567.593628
1368.230469	551.277405
1367.151367	592.863892
1366.071289	551.078918
1364.991211	569.500000
1363.911133	597.172974
1362.831055	562.352295
1361.750977	515.975220
1360.669922	513.568909
1359.588867	615.246521
1358.507812	531.884216
1357.426758	550.285400
1356.345703	545.562866
1355.263672	522.351685
1354.181641	508.392334
1353.099609	559.130798
1352.017578	531.309570
1350.935547	538.142700
1349.852539	533.427307
1348.769531	524.095947
1347.686523	563.243896
1346.603516	549.294617
1345.520508	567.656006
1344.436523	542.175232
1343.352539	551.304382
1342.268555	562.736450
1341.184570	528.046753
1340.100586	576.366333
1339.015625	569.347290
1337.930664	566.939941
1336.845703	555.316650
1335.760742	539.089844
1334.675781	589.667175
1333.589844	561.925171
1332.503906	580.244263
1331.417969	534.096741
1330.332031	557.017639
1329.246094	559.218506
1328.159180	529.205933
1327.072266	563.617676
1325.985352	561.215881
1324.898438	547.316711
1323.811523	521.926392
1322.723633	544.820374
1321.635742	581.496582
1320.547852	560.709717
1319.459961	519.252136
1318.371094	549.021484
1317.283203	542.032166
1316.194336	567.193909
1315.105469	551.020142
1314.016602	583.057678
1312.926758	564.591675
1311.837891	491.060181
1310.748047	552.916504
1309.658203	520.702820
1308.568359	527.489075
1307.477539	550.323975
1306.387695	566.272766
1305.296875	476.775146
1304.206055	579.818848
1303.114258	577.422791
1302.023438	513.171936
1300.931641	538.275085
1299.840820	480.924866
1298.748047	577.005554
1297.656250	547.140503
1296.564453	583.663696
1295.471680	521.769653
1294.378906	567.436401
1293.286133	528.443970
1292.193359	500.901794
1291.099609	539.687012
1290.006836	537.303040
1288.913086	532.633972
1287.819336	541.679932
1286.725586	569.003845
1285.630859	548.338318
1284.536133	511.689850
1283.442383	566.411316
1282.346680	548.040833
1281.251953	506.846100
1280.157227	522.733154
1279.061523	547.743530
1277.965820	511.134827
1276.870117	561.234009
1275.774414	556.570435
1274.677734	549.627930
1273.581055	554.088867
1272.485352	574.506714
1271.387695	510.580200
1270.291016	535.556396
1269.194336	544.573669
1268.096680	519.415588
1266.999023	532.987976
1265.901367	519.227600
1264.803711	489.533875
1263.705078	521.316101
1262.606445	543.982544
1261.507812	541.608398
1260.409180	539.235046
1259.310547	507.289642
1258.210938	568.607361
1257.111328	523.024048
1256.011719	554.759827
1254.912109	491.009918
1253.812500	561.377197
1252.711914	572.637390
1251.612305	524.822510
1250.511719	515.641296
1249.410156	529.174683
1248.309570	472.310699
1247.208008	565.307922
1246.107422	492.568665
1245.005859	506.096344
1243.903320	526.426331
1242.801758	544.480286
1241.699219	499.016479
1240.597656	578.300598
1239.495117	489.765869
1238.391602	523.682434
1237.289062	500.921387
1236.185547	528.024963
1235.082031	546.055603
1233.978516	502.914368
1232.875000	525.472839
1231.771484	516.319336
1230.666992	552.452087
1229.562500	547.824402
1228.458008	502.458527
1227.353516	502.367401
1226.248047	527.163818
1225.143555	520.281921
1224.038086	524.710938
1222.931641	574.363770
1221.826172	522.259705
1220.720703	517.644043
1219.614258	537.890503
1218.507812	517.456177
1217.401367	596.435120
1216.294922	503.715515
1215.187500	526.208130
1214.080078	492.242706
1212.972656	544.077820
1211.865234	483.035339
1210.757812	494.231476
1209.649414	573.114197
1208.541016	516.611511
1207.432617	493.962341
1206.324219	523.189270
1205.215820	525.348999
1204.106445	475.658844
1202.997070	558.966675
1201.887695	558.865173
1200.778320	520.461304
1199.668945	518.114075
1198.558594	542.794861
1197.448242	524.681458
1196.337891	490.814484
1195.227539	549.252197
1194.117188	526.646118
1193.005859	528.800659
1191.894531	575.950500
1190.783203	506.114532
1189.671875	492.528625
1188.559570	546.405029
1187.447266	546.305725
1186.334961	548.454163
1185.222656	523.633606
1184.110352	530.279236
1182.998047	507.717468
1181.884766	554.793884
1180.771484	563.675903
1179.658203	534.384338
1178.543945	500.613586
1177.430664	536.434509
1176.316406	507.163788
1175.202148	549.701477
1174.087891	536.141846
1172.972656	520.344299
1171.858398	544.916626
1170.743164	549.301636
1169.627930	549.201660
1168.512695	528.930664
1167.396484	504.185394
1166.281250	515.295715
1165.165039	577.922180
1164.048828	501.670593
1162.931641	530.688843
1161.815430	514.920715
1160.698242	530.495667
1159.581055	501.305481
1158.463867	512.402039
1157.346680	581.660583
1156.228516	527.872742
1155.111328	552.376404
1153.993164	503.085266
1152.875000	514.171265
1151.755859	543.134216
1150.637695	511.749329
1149.518555	504.953217
1148.399414	513.796875
1147.280273	520.403748
1146.160156	513.609680
1145.041016	520.214172
1143.920898	520.119385
1142.800781	517.792786
1141.680664	490.920929
1140.559570	535.452515
1139.439453	573.275940
1138.318359	537.487671
1137.197266	526.240540
1136.075195	539.521179
1134.954102	557.255005
1133.832031	572.753784
1132.709961	505.803131
1131.587891	516.849915
1130.465820	550.166626
1129.342773	454.305817
1128.220703	529.926819
1127.097656	532.056335
1125.974609	511.927399
1124.850586	505.157959
1123.727539	485.041199
1122.603516	551.689331
1121.479492	482.640137
1120.355469	489.223328
1119.230469	498.027435
1118.106445	531.280579
1116.981445	484.510620
1115.856445	544.419434
1114.730469	548.763550
1113.605469	553.106079
1112.479492	535.237915
1111.353516	492.950745
1110.227539	535.042542
1109.101562	528.285828
1107.974609	503.777313
1106.848633	523.655273
1105.721680	514.685791
1104.594727	554.517029
1103.466797	530.021545
1102.339844	472.276031
1101.211914	536.478577
1100.083984	529.731262
1098.956055	491.961792
1097.827148	507.381439
1096.699219	549.378235
1095.570312	569.211365
1094.441406	562.464111
1093.311523	540.221191
1092.182617	535.695251
1091.052734	546.663452
1089.922852	553.202026
1088.792969	528.764526
1087.663086	544.151917
1086.532227	528.571289
1085.402344	473.194916
1084.271484	508.481049
1083.139648	490.705048
1082.008789	525.975037
1080.876953	481.687408
1079.746094	519.155273
1078.614258	505.807770
1077.481445	494.673492
1076.349609	532.118347
1075.216797	516.568176
1074.083984	529.716675
1072.951172	500.932037
1071.818359	511.872162
1070.685547	485.307251
1069.551758	507.273895
1068.417969	504.975983
1067.284180	496.064697
1066.149414	491.565277
1065.015625	509.106781
1063.880859	467.146729
1062.746094	506.717407
1061.611328	489.002960
1060.476562	488.913483
1059.340820	488.824036
1058.205078	512.951172
1057.069336	519.460571
1055.933594	525.967651
1054.796875	528.071655
1053.661133	545.574158
1052.524414	499.284943
1051.387695	507.989899
1050.250000	543.075928
1049.113281	505.605621
1047.975586	503.315186
1046.837891	492.235626
1045.700195	487.751312
1044.561523	459.105225
1043.423828	568.834839
1042.285156	498.462769
1041.146484	500.566925
1040.007812	520.230835
1038.868164	509.162231
1037.728516	563.925537
1036.589844	487.037079
1035.449219	480.367462
1034.309570	475.893341
1033.169922	526.237183
1032.029297	537.102051
1030.888672	539.195435
1029.748047	528.139404
1028.606445	503.941071
1027.465820	525.755188
1026.324219	527.849060
1025.182617	518.992920
1024.041016	558.307739
1022.898438	538.503967
1021.756836	488.066559
1020.614258	549.247742
1019.471680	540.395691
1018.328125	507.485046
1017.185547	454.903137
1016.041992	518.232056
1014.898438	546.558044
1013.754883	520.227844
1012.610352	561.655579
1011.466797	520.036987
1010.322266	447.848846
1009.177734	476.161621
1008.033203	504.464020
1006.887695	521.838867
1005.742188	513.010986
1004.597656	506.368988
1003.451172	547.738342
1002.305664	541.092285
1001.160156	510.453064
1000.013672	536.531677
998.867188	481.917603
997.720703	492.730225
996.573242	512.258179
995.426758	538.317200
994.279297	505.533020
993.131836	544.655396
991.983398	507.525604
990.835938	511.788025
989.687500	492.097260
988.539062	526.839233
987.390625	533.272339
986.242188	533.174377
985.092773	500.439087
983.944336	498.171722
982.794922	535.055603
981.644531	497.988678
980.495117	515.290955
979.344727	499.979492
978.194336	506.407898
977.043945	475.892487
975.893555	473.632385
974.742188	467.028656
973.591797	525.582153
972.440430	492.914124
971.289062	494.994537
970.136719	573.046204
968.985352	531.706421
967.833008	525.099182
966.680664	492.461151
965.528320	511.891907
964.375000	529.146851
963.221680	520.376587
962.069336	522.448730
960.915039	496.343353
959.761719	474.581635
958.608398	461.494507
957.454102	485.238281
956.299805	515.470825
955.145508	526.203186
953.990234	500.125793
952.834961	515.186340
951.680664	549.719482
950.525391	499.849762
949.369141	482.450134
948.213867	501.828827
947.057617	482.272552
945.901367	540.564758
944.745117	516.684753
943.588867	490.652100
942.431641	531.622009
941.274414	531.524109
940.117188	540.067322
938.959961	503.250031
937.801758	526.911560
936.644531	548.405273
935.486328	556.939026
934.328125	483.454865
933.168945	494.155243
932.010742	487.591736
930.851562	515.544067
929.692383	537.015991
928.533203	541.229614
927.373047	487.232513
926.213867	484.987213
925.053711	527.999878
923.893555	484.808472
922.732422	499.799286
921.572266	514.784546
920.411133	510.382599
919.250000	480.144897
918.088867	484.361816
916.926758	525.166626
915.765625	548.741028
914.603516	572.306641
913.441406	499.062622
912.279297	496.819855
911.116211	496.728241
909.953125	531.035706
908.790039	522.339539
907.626953	483.558533
906.463867	489.915588
905.299805	539.237427
904.135742	494.030762
902.971680	511.120117
901.807617	526.055969
900.643555	489.463806
899.478516	510.837250
898.313477	530.056763
897.148438	547.123596
895.982422	499.828522
894.817383	473.998779
893.651367	499.644012
892.485352	544.575745
891.319336	471.592712
890.152344	507.940186
888.986328	475.704224
887.819336	501.325378
886.652344	475.528564
885.484375	524.698120
884.317383	494.624023
883.149414	490.250977
881.981445	528.688354
880.813477	509.330292
879.644531	477.141479
878.475586	457.800049
877.307617	476.965210
876.137695	500.400177
874.968750	506.721893
873.798828	504.490601
872.629883	534.319275
871.459961	525.672974
870.289062	544.804199
869.119141	508.389954
867.948242	514.703064
866.777344	506.066711
865.606445	516.647705
864.435547	554.973450
863.263672	469.506073
862.092773	512.093750
860.920898	486.399109
859.748047	520.436096
858.576172	496.881927
857.403320	569.283020
856.230469	530.806152
855.057617	503.000336
853.884766	545.526550
852.710938	530.511658
851.538086	494.200562
850.364258	491.979340
849.189453	536.605408
848.015625	553.538086
846.840820	515.120850
845.666016	568.230652
844.491211	519.185852
843.316406	465.904327
842.140625	544.517944
840.965820	535.910645
839.790039	503.917908
838.613281	508.076294
837.437500	518.609497
836.260742	537.638977
835.083984	484.422882
833.907227	446.096344
832.730469	535.216492
831.552734	505.388611
830.375977	539.264404
829.198242	494.587952
828.019531	515.719360
826.841797	521.989563
825.663086	536.743469
824.484375	513.311646
823.305664	523.820190
822.126953	515.241821
820.947266	544.825562
819.767578	525.648621
818.587891	491.644684
817.408203	489.434784
816.228516	512.646179
815.047852	523.141052
813.867188	514.573730
812.686523	529.298706
811.504883	501.682159
810.324219	567.197815
809.142578	554.396545
807.960938	547.946899
806.779297	516.116821
805.596680	549.858521
804.415039	528.612061
803.232422	513.715637
802.048828	541.097961
800.866211	511.411804
799.682617	498.639648
798.500000	534.459412
797.315430	532.248169
796.131836	502.585571
794.948242	542.607239
793.763672	523.508301
792.579102	548.737488
791.394531	508.543030
790.208984	485.241455
789.024414	491.479431
787.838867	558.875000
786.653320	495.514130
785.466797	522.828491
784.281250	516.408020
783.094727	501.560394
781.908203	528.858337
780.721680	492.947693
779.534180	545.511719
778.347656	520.140442
777.160156	526.360107
775.972656	496.791687
774.784180	513.536682
773.596680	580.777832
772.408203	483.891602
771.219727	534.285339
770.031250	525.773743
768.841797	550.908447
767.653320	525.578369
766.463867	529.684509
765.274414	525.382996
764.083984	584.117310
762.894531	554.598267
761.704102	525.090088
760.513672	550.192139
759.322266	547.990295
758.131836	539.491638
756.940430	518.403381
755.749023	549.783081
754.557617	555.974915
753.365234	516.016602
752.173828	522.212341
750.981445	540.986877
749.789062	507.342896
748.595703	530.305298
747.403320	549.067749
746.209961	563.632629
745.016602	506.965485
743.823242	529.910767
742.628906	513.059204
741.435547	567.400696
740.241211	519.148315
739.046875	527.423462
737.851562	510.584839
736.657227	573.254944
735.461914	564.781128
734.266602	524.939514
733.070312	501.840759
731.875000	501.747345
730.678711	533.007263
729.482422	549.626709
728.286133	532.808838
727.089844	484.661285
725.892578	520.078369
724.695312	503.275269
723.498047	515.708862
722.300781	523.962830
721.102539	544.736328
719.904297	557.155212
718.706055	565.396729
717.507812	542.346008
716.308594	527.646057
715.110352	506.696045
713.911133	517.025513
712.711914	527.351135
711.511719	518.916809
710.311523	500.067566
709.112305	539.555664
707.912109	547.786438
706.710938	539.354553
705.510742	530.925720
704.309570	549.561829
703.108398	505.752350
701.907227	520.224304
700.705078	505.563751
699.502930	497.148987
698.301758	507.454926
697.098633	501.122223
695.896484	486.476074
694.693359	575.763794
693.491211	523.701843
692.287109	536.070923
691.083984	531.816101
689.880859	510.946655
688.676758	510.851318
687.472656	548.128357
686.268555	531.419250
685.063477	572.829468
683.858398	539.521240
682.654297	533.196411
681.448242	512.353821
680.243164	518.479919
679.037109	518.383118
677.832031	503.774353
676.625977	516.116821
675.418945	534.671814
674.212891	528.356018
673.005859	528.257324
671.798828	517.802612
670.591797	521.847534
669.383789	536.243164
668.176758	554.773438
666.968750	507.067505
665.760742	513.180603
664.551758	513.084717
663.343750	531.605408
662.134766	545.982910
660.925781	562.422729
659.715820	572.654297
658.506836	541.542908
657.296875	578.640015
656.086914	537.208130
654.876953	524.712891
653.666016	570.053894
652.456055	551.362061
651.245117	522.354004
650.034180	553.220154
648.822266	515.967102
647.611328	528.251526
646.399414	532.278931
645.187500	503.301422
643.974609	536.204468
642.762695	492.803467
641.549805	558.680969
640.336914	548.270630
639.124023	498.709290
637.910156	572.790222
636.696289	504.702698
635.483398	516.966003
634.268555	529.224731
633.054688	570.302795
631.839844	582.546875
630.625000	516.579102
629.410156	506.193939
628.195312	526.672302
626.979492	545.086060
625.764648	520.305481
624.548828	524.320374
623.332031	555.058838
622.116211	511.791718
620.899414	538.410950
619.682617	536.255493
618.465820	569.022766
617.248047	575.077759
616.031250	519.526489
614.813477	570.756165
613.595703	531.648010
612.376953	582.856201
611.159180	558.123901
609.940430	537.503906
608.721680	508.686981
607.502930	572.165588
606.283203	498.244385
605.063477	520.701050
603.843750	547.248474
602.624023	495.915039
601.403320	540.896790
600.183594	526.456116
598.962891	528.405518
597.742188	559.021912
596.520508	563.011719
595.299805	519.920593
594.078125	554.614380
592.856445	550.418091
591.633789	495.078766
590.412109	544.075439
589.189453	515.343201
587.966797	560.228333
586.743164	513.105591
585.520508	486.439117
584.296875	533.347839
583.073242	529.161621
581.849609	529.062317
580.625000	549.386292
579.401367	528.863708
578.176758	553.263184
576.952148	549.077026
575.726562	557.137146
574.500977	501.941406
573.276367	512.047302
572.049805	532.347656
570.824219	554.679565
569.598633	566.808716
568.372070	560.586792
567.145508	566.595825
565.917969	556.300781
564.691406	548.046875
563.463867	533.685181
562.236328	525.438599
561.008789	576.244934
559.780273	578.172485
558.552734	541.425964
557.324219	518.938660
556.094727	510.702454
554.866211	561.463745
553.636719	530.849609
552.407227	549.051575
551.177734	536.749512
549.948242	563.074463
548.717773	536.547729
547.488281	520.190918
546.256836	589.167969
545.026367	576.869812
543.795898	536.144348
542.564453	546.195862
541.333008	537.972778
540.100586	552.079529
538.869141	513.418579
537.636719	539.698242
536.404297	496.996979
535.171875	553.692444
533.939453	525.199158
532.706055	551.456726
531.472656	529.055603
530.239258	545.169250
529.004883	536.961609
527.771484	496.342773
526.537109	524.606445
525.302734	540.708740
524.067383	516.309998
522.833008	576.943726
521.597656	566.715210
520.362305	481.617249
519.126953	540.200012
517.890625	525.938416
516.654297	542.019043
515.417969	507.541626
514.181641	499.359253
512.944336	517.457031
511.708008	513.317749
510.470703	549.591003
509.233398	503.023499
507.995117	498.889130
506.756836	516.969849
505.518555	516.872437
504.280273	573.297363
503.041992	532.823853
501.802734	534.741333
500.563477	526.570557
499.324219	544.625488
498.084961	570.740601
496.844727	518.207336
495.604492	540.285583
494.364258	536.152466
493.124023	499.777252
491.882812	590.351318
490.642578	531.820312
489.401367	545.818665
488.159180	537.660889
486.917969	543.599487
485.675781	515.315674
484.433594	553.457336
483.191406	515.121277
481.948242	504.965027
480.705078	557.166992
479.462891	532.929260
478.218750	536.850037
476.975586	576.954651
475.731445	550.716858
474.487305	510.422211
473.243164	528.408264
471.999023	528.308533
470.753906	546.284424
469.508789	528.109131
468.263672	523.994141
467.018555	519.880676
465.772461	481.651764
464.526367	543.762451
463.280273	559.708740
462.034180	565.620300
460.787109	583.561768
459.540039	519.291931
458.292969	539.239929
457.045898	539.138062
455.797852	525.009277
454.550781	518.899658
453.302734	520.804749
452.053711	568.771545
450.805664	544.635986
449.556641	542.531128
448.307617	522.412781
447.058594	514.309204
445.808594	512.211182
444.559570	536.119751
443.309570	528.018127
442.059570	535.917053
440.808594	523.819885
439.557617	513.726196
438.307617	571.587158
437.055664	539.508240
435.804688	487.463379
434.552734	495.360901
433.300781	539.202209
432.048828	537.103516
430.796875	523.027893
429.543945	542.888123
428.291016	542.785400
427.038086	528.716614
425.785156	548.564392
424.531250	538.488525
423.278320	582.255188
422.023438	546.259338
420.769531	540.176147
419.515625	502.208954
418.260742	500.121399
417.005859	531.900940
415.750000	561.676636
414.495117	539.665100
413.239258	573.410034
411.983398	575.292114
410.727539	571.202637
409.470703	577.064148
408.214844	598.839355
406.958008	614.638916
405.700195	608.556274
404.443359	660.138550
403.185547	713.689331
401.927734	685.727478
400.669922	639.891052
399.411133	625.861816
398.153320	639.648621
396.894531	613.707947
395.635742	573.877014
394.375977	567.812195
393.116211	573.659485
391.857422	529.889465
390.596680	537.725952
389.336914	573.333313
388.076172	593.059387
386.815430	573.115967
385.554688	608.696350
384.293945	545.145752
383.032227	554.952271
381.770508	544.939026
380.508789	568.610291
379.247070	544.732300
377.984375	574.336060
376.721680	528.684937
375.458984	566.199280
374.196289	518.587646
372.932617	558.068604
371.668945	508.497925
370.405273	522.248962
369.141602	520.171997
367.876953	547.757751
366.613281	514.043274
365.347656	533.712891
364.083008	523.729858
362.818359	547.341980
361.552734	541.311340
360.287109	519.481201
359.020508	539.130981
357.754883	519.283936
356.488281	529.055786
355.221680	528.955322
353.955078	536.748169
352.687500	509.024750
351.419922	544.434692
350.152344	510.803589
348.884766	544.227844
347.616211	532.295654
346.348633	524.310181
345.080078	539.976257
343.810547	533.962646
342.541992	516.131470
341.272461	508.154968
340.002930	474.581696
338.733398	504.024139
337.462891	503.928345
336.193359	519.577332
334.922852	521.446228
333.651367	505.608337
332.380859	542.884705
331.109375	525.082031
329.837891	523.015991
328.566406	485.565338
327.293945	479.576538
326.022461	481.450439
324.750000	516.723999
323.477539	475.374207
322.204102	514.563416
320.930664	500.720276
319.657227	524.183838
318.383789	533.898376
317.110352	504.359467
315.835938	516.036194
314.561523	517.899719
313.287109	480.535156
312.011719	502.014618
310.737305	523.485901
309.461914	492.022278
308.185547	546.805115
306.910156	527.105957
305.633789	523.087341
304.357422	517.111450
303.081055	540.513611
301.804688	501.250458
300.527344	559.884094
299.250000	481.486908
297.972656	526.403687
296.694336	493.042572
295.416992	535.983887
294.138672	543.704834
292.860352	514.270203
291.581055	471.161621
290.301758	504.300995
289.022461	531.564819
287.743164	511.924408
286.463867	519.640991
285.183594	548.839417
283.903320	523.348511
282.623047	507.629364
281.342773	466.539551
280.061523	513.290833
278.780273	476.118195
277.499023	524.800720
276.216797	491.541107
274.935547	508.999054
273.653320	452.357300
272.370117	551.692688
271.087891	508.707825
269.804688	539.789978
268.521484	514.358765
267.238281	539.584045
265.955078	531.690735
264.670898	506.275513
263.386719	515.913086
262.102539	525.546997
260.817383	515.716187
259.533203	531.183594
258.248047	474.666870
256.962891	495.971100
255.676758	511.433319
254.390625	464.673859
253.104492	532.620605
251.818359	530.575439
250.532227	555.734741
249.245117	505.116943
247.958008	553.580139
246.670898	539.880310
245.382812	528.127319
244.095703	493.083496
242.807617	518.221008
241.518555	477.370850
240.230469	508.322205
238.941406	515.984253
237.652344	515.885620
236.363281	478.945129
235.074219	505.995087
233.784180	521.404846
232.494141	494.174072
231.204102	470.828796
229.913086	501.733917
228.622070	491.953888
227.331055	478.304626
226.040039	497.574036
224.749023	487.800293
223.457031	495.448395
222.165039	539.858093
220.873047	429.482330
219.580078	495.164185
218.287109	500.871063
216.994141	475.639801
215.701172	489.080688
214.407227	458.063019
213.114258	529.473633
211.820312	502.324097
210.525391	479.048218
209.231445	478.956543
207.936523	463.417633
206.641602	461.398376
205.346680	472.891083
204.050781	455.432373
202.754883	484.286621
201.458984	461.045166
200.163086	460.956909
198.866211	466.653595
197.569336	485.843750
196.272461	478.040375
194.975586	470.239990
193.677734	479.784119
192.379883	502.809937
191.082031	444.930420
189.784180	464.102570
188.485352	489.043427
187.187500	469.699738
185.887695	467.685120
184.588867	496.459412
183.289062	450.190857
181.989258	469.339813
180.689453	457.710907
179.389648	501.847290
178.088867	459.457886
176.788086	432.461121
175.487305	499.637024
174.186523	459.193665
172.884766	487.919800
171.583008	507.031982
170.281250	489.652893
168.979492	491.478821
167.676758	485.626129
166.374023	485.532990
165.071289	462.415039
163.767578	500.693665
162.463867	444.975647
161.160156	429.549225
159.856445	486.984680
158.552734	483.057465
157.248047	435.051575
155.943359	413.890350
154.638672	454.042511
153.333008	463.532501
152.027344	425.142395
150.721680	449.951721
149.416016	472.837189
148.110352	457.434784
146.803711	470.742065
145.497070	440.040161
144.189453	459.084167
142.882812	481.945831
141.575195	476.116913
140.267578	483.672455
138.959961	405.212891
137.651367	420.423187
136.342773	449.002106
135.034180	454.646698
133.725586	466.018829
132.416016	464.019714
131.106445	471.567261
129.796875	454.297333
128.487305	433.217133
127.176758	446.490417
125.866211	385.357788
124.555664	398.635132
123.244141	387.116638
121.933594	377.509155
120.622070	417.467712

