#Wave		#Intensity
1998.943359	568.319214
1997.975586	539.903259
1997.007812	539.809204
1996.039062	537.132751
1995.071289	614.496643
1994.102539	570.504578
1993.133789	536.851929
1992.165039	500.630341
1991.196289	577.946655
1990.227539	521.093140
1989.257812	471.997131
1988.288086	533.805298
1987.318359	554.338806
1986.348633	600.643799
1985.378906	561.877747
1984.409180	559.202820
1983.438477	615.788757
1982.467773	577.040283
1981.497070	548.607788
1980.526367	566.538269
1979.555664	550.991150
1978.584961	558.617859
1977.613281	581.684814
1976.641602	563.569702
1975.669922	558.325500
1974.698242	589.097839
1973.726562	547.842590
1972.753906	578.605957
1971.782227	593.931763
1970.809570	550.126526
1969.836914	573.162598
1968.863281	537.085571
1967.890625	544.699829
1966.917969	565.155884
1965.944336	541.941284
1964.970703	557.254639
1963.997070	549.454712
1963.023438	575.029724
1962.048828	603.162476
1961.075195	559.431763
1960.100586	602.951904
1959.125977	597.716003
1958.151367	559.138733
1957.176758	551.347900
1956.201172	610.222717
1955.226562	576.790466
1954.250977	566.437439
1953.275391	607.340393
1952.299805	602.109985
1951.323242	576.387573
1950.347656	553.235413
1949.371094	604.355286
1948.394531	578.645935
1947.417969	537.585876
1946.441406	598.919617
1945.464844	542.516113
1944.487305	591.034546
1943.509766	544.884644
1942.532227	570.366394
1941.554688	613.739990
1940.577148	575.280640
1939.599609	605.856384
1938.621094	582.747314
1937.642578	595.422729
1936.664062	582.543579
1935.685547	595.214600
1934.707031	582.339905
1933.727539	577.130737
1932.749023	574.476562
1931.769531	541.189941
1930.790039	548.752319
1929.810547	581.830933
1928.830078	594.486389
1927.850586	566.321472
1926.870117	601.930115
1925.889648	578.873901
1924.909180	545.627075
1923.928711	517.490295
1922.948242	573.472656
1921.966797	524.954224
1920.985352	565.628357
1920.003906	557.887085
1919.022461	580.712341
1918.041016	598.436523
1917.059570	570.324768
1916.077148	560.042358
1915.094727	565.034790
1914.112305	580.204407
1913.129883	564.836975
1912.147461	508.773071
1911.164062	567.182678
1910.180664	556.911499
1909.197266	577.154236
1908.213867	554.174438
1907.230469	548.994141
1906.247070	553.980408
1905.262695	523.394409
1904.278320	604.592529
1903.294922	530.830688
1902.309570	548.513672
1901.325195	614.430847
1900.340820	538.167419
1899.355469	578.682495
1898.370117	601.419861
1897.384766	596.240112
1896.399414	547.937439
1895.414062	537.696289
1894.427734	611.141968
1893.442383	593.286987
1892.456055	572.903259
1891.469727	577.871948
1890.482422	580.304749
1889.496094	572.602173
1888.508789	587.700989
1887.522461	534.410217
1886.535156	541.913513
1885.547852	572.200867
1884.559570	559.443481
1883.572266	658.053406
1882.583984	592.144287
1881.595703	589.510376
1880.607422	528.695557
1879.619141	551.365662
1878.630859	586.671570
1877.641602	586.568726
1876.653320	563.715027
1875.664062	558.561340
1874.674805	558.463379
1873.684570	553.312378
1872.695312	573.424072
1871.705078	525.336060
1870.715820	595.949829
1869.725586	600.894836
1868.735352	540.205627
1867.744141	547.682495
1866.753906	562.727051
1865.762695	613.088257
1864.771484	544.871704
1863.780273	587.652039
1862.789062	595.113892
1861.797852	572.318420
1860.805664	539.447815
1859.813477	587.239624
1858.821289	564.457458
1857.829102	587.033508
1856.836914	579.373413
1855.844727	629.643127
1854.851562	581.688171
1853.858398	581.585999
1852.865234	576.449402
1851.872070	576.348206
1850.878906	566.181580
1849.884766	558.534363
1848.890625	543.343445
1847.897461	563.368347
1846.903320	563.269348
1845.908203	631.052612
1844.914062	595.749817
1843.918945	565.485901
1842.923828	590.514893
1841.929688	590.411133
1840.933594	592.819336
1839.938477	560.065674
1838.943359	539.878723
1837.947266	572.421997
1836.951172	592.402832
1835.955078	622.415649
1834.958984	536.990112
1833.961914	536.895691
1832.965820	586.969727
1831.968750	581.850586
1830.971680	544.135315
1829.974609	559.082214
1828.977539	566.503906
1827.979492	568.910522
1826.982422	533.729675
1825.984375	571.215820
1824.986328	563.600769
1823.988281	591.050598
1822.989258	583.434631
1821.991211	600.857056
1820.992188	578.223206
1819.993164	575.618835
1818.994141	600.540100
1817.995117	535.387390
1816.995117	562.808289
1815.996094	552.705627
1814.996094	650.127502
1813.996094	595.012024
1812.996094	557.413208
1811.996094	532.323425
1810.995117	552.219604
1809.994141	597.091675
1808.993164	572.008118
1807.992188	584.394470
1806.991211	574.303772
1805.990234	624.133362
1804.988281	579.093811
1803.986328	574.000610
1802.984375	533.976135
1801.982422	593.756775
1800.980469	616.101257
1799.977539	601.029419
1798.975586	568.508606
1797.972656	555.943420
1796.969727	585.756531
1795.966797	568.208374
1794.962891	585.550232
1793.959961	582.955872
1792.956055	547.981628
1791.952148	585.240967
1790.948242	567.708252
1789.943359	582.545288
1788.939453	574.975464
1787.934570	609.715088
1786.929688	619.560425
1785.924805	629.402283
1784.919922	529.798706
1783.915039	591.877319
1782.909180	601.718811
1781.903320	546.920715
1780.897461	579.136719
1779.891602	559.153625
1778.885742	598.810120
1777.879883	593.736084
1776.873047	566.309448
1775.866211	548.826050
1774.859375	573.558655
1773.852539	573.457581
1772.844727	573.356445
1771.837891	612.961365
1770.830078	600.447388
1769.822266	580.495483
1768.814453	585.353760
1767.806641	590.210327
1766.797852	597.544556
1765.789062	540.422119
1764.781250	532.891113
1763.772461	552.622192
1762.762695	602.078491
1761.753906	572.245239
1760.744141	500.316681
1759.735352	599.283508
1758.725586	534.803345
1757.714844	604.023132
1756.705078	574.215698
1755.695312	574.114380
1754.684570	588.858276
1753.673828	546.700500
1752.663086	588.650452
1751.652344	526.724426
1750.640625	566.190674
1749.629883	585.866821
1748.618164	635.194946
1747.606445	617.784851
1746.594727	548.496094
1745.583008	578.042480
1744.570312	573.000732
1743.557617	587.715942
1742.545898	516.012390
1741.533203	587.508423
1740.519531	580.000427
1739.506836	560.156799
1738.493164	569.926697
1737.479492	557.492188
1736.465820	549.994690
1735.452148	564.692993
1734.438477	574.455139
1733.423828	589.143860
1732.410156	564.393799
1731.395508	539.652405
1730.380859	556.803162
1729.366211	569.021240
1728.350586	554.143555
1727.334961	546.658386
1726.320312	578.567627
1725.304688	598.157837
1724.288086	595.591003
1723.272461	524.125854
1722.256836	592.920227
1721.240234	509.181702
1720.223633	553.360535
1719.207031	563.098511
1718.190430	609.710693
1717.172852	602.228638
1716.155273	550.511719
1715.138672	545.499939
1714.121094	562.600891
1713.102539	577.239441
1712.084961	542.754700
1711.066406	594.223572
1710.048828	540.107727
1709.030273	544.921387
1708.011719	576.729187
1706.992188	569.265930
1705.973633	583.885010
1704.954102	605.857544
1703.934570	586.130859
1702.915039	642.423096
1701.895508	578.568787
1700.875977	600.526611
1699.855469	548.955750
1698.834961	585.612488
1697.814453	619.806458
1696.793945	526.619751
1695.773438	546.118286
1694.751953	624.374451
1693.730469	560.613525
1692.709961	636.391724
1691.687500	538.390015
1690.666016	552.975464
1689.644531	560.216614
1688.622070	538.104065
1687.599609	579.582214
1686.577148	589.259827
1685.554688	620.935669
1684.532227	574.385986
1683.508789	603.609375
1682.485352	557.079224
1681.461914	610.724304
1680.438477	544.669556
1679.415039	595.855713
1678.391602	576.217407
1677.367188	595.644653
1676.342773	602.861328
1675.318359	536.866333
1674.293945	619.726807
1673.268555	614.738098
1672.244141	546.337036
1671.218750	560.871643
1670.193359	636.354614
1669.167969	536.295776
1668.141602	541.075256
1667.116211	553.163574
1666.089844	604.230164
1665.063477	577.327271
1664.037109	589.402649
1663.010742	579.557739
1661.983398	601.367126
1660.957031	608.563232
1659.929688	562.212708
1658.902344	557.246277
1657.875000	571.745178
1656.846680	625.159363
1655.819336	608.023804
1654.791016	590.894348
1653.762695	595.651978
1652.734375	556.653503
1651.705078	593.010315
1650.676758	592.905090
1649.647461	551.498291
1648.618164	553.829529
1647.588867	585.303650
1646.559570	565.774048
1645.529297	609.373779
1644.500000	594.701538
1643.469727	563.045959
1642.439453	599.343445
1641.409180	548.289734
1640.377930	538.489929
1639.347656	582.047913
1638.316406	589.218933
1637.285156	596.387329
1636.253906	547.803284
1635.222656	596.175598
1634.190430	581.531433
1633.158203	598.386475
1632.125977	561.947449
1631.093750	598.174011
1630.061523	527.849243
1629.029297	585.857056
1627.996094	522.820862
1626.962891	592.909058
1625.929688	573.446899
1624.896484	573.345032
1623.863281	604.686890
1622.829102	570.723022
1621.794922	575.457397
1620.760742	556.015442
1619.726562	580.086975
1618.692383	538.901672
1617.657227	587.129333
1616.622070	550.788879
1615.587891	603.827820
1614.551758	569.912109
1613.516602	574.639771
1612.481445	531.085144
1611.445312	603.398621
1610.409180	528.483215
1609.373047	595.945862
1608.336914	634.436829
1607.300781	561.967651
1606.263672	566.690613
1605.226562	559.356812
1604.189453	568.899719
1603.152344	530.235901
1602.115234	537.370789
1601.077148	532.456604
1600.039062	573.312805
1599.000977	541.901001
1597.962891	549.028687
1596.924805	495.963959
1595.885742	582.533630
1594.847656	635.378174
1593.808594	567.888489
1592.769531	536.511047
1591.730469	594.146362
1590.690430	548.345215
1589.651367	531.415466
1588.611328	593.829224
1587.571289	519.207642
1586.531250	533.535034
1585.490234	593.512146
1584.450195	569.381958
1583.409180	540.456238
1582.368164	600.400024
1581.327148	600.293152
1580.285156	556.972839
1579.244141	607.280334
1578.202148	556.774536
1577.160156	563.873718
1576.118164	592.561768
1575.076172	532.491028
1574.033203	549.183411
1572.991211	594.642944
1571.948242	544.193115
1570.905273	575.255920
1569.862305	608.704041
1568.818359	558.278625
1567.775391	586.926575
1566.731445	546.103760
1565.687500	529.243042
1564.643555	598.584595
1563.598633	543.417908
1562.554688	538.534119
1561.509766	559.975647
1560.464844	545.520081
1559.419922	523.892944
1558.374023	600.336487
1557.329102	564.359192
1556.283203	571.431335
1555.237305	568.938965
1554.191406	549.716980
1553.145508	530.501770
1552.098633	563.856262
1551.052734	609.142822
1550.005859	551.713318
1548.958984	568.330505
1547.912109	501.378662
1546.864258	553.805237
1545.816406	565.639832
1544.769531	598.946289
1543.721680	574.981262
1542.672852	577.264099
1541.625000	610.550598
1540.576172	572.289062
1539.528320	581.723389
1538.479492	600.689087
1537.430664	562.449707
1536.380859	619.537354
1535.332031	612.279541
1534.282227	609.788330
1533.232422	550.140442
1532.182617	609.570618
1531.132812	607.081116
1530.082031	568.888184
1529.031250	604.484497
1527.981445	547.270142
1526.929688	589.994629
1525.878906	611.296509
1524.828125	577.893127
1523.776367	580.167664
1522.724609	580.064026
1521.672852	596.598633
1520.621094	577.480408
1519.569336	577.377258
1518.516602	591.527771
1517.463867	598.547668
1516.411133	603.190308
1515.358398	557.970032
1514.305664	555.496460
1513.251953	593.373047
1512.198242	576.655579
1511.144531	593.161011
1510.090820	531.377319
1509.037109	562.115662
1507.982422	557.272461
1506.927734	502.641052
1505.873047	561.814331
1504.818359	566.454102
1503.763672	500.001862
1502.708984	542.559021
1501.653320	540.093201
1500.597656	554.207092
1499.541992	535.164124
1498.486328	523.230652
1497.429688	598.885437
1496.373047	489.909546
1495.317383	544.246582
1494.260742	555.978577
1493.203125	586.629883
1492.146484	548.684631
1491.088867	600.607605
1490.031250	593.407654
1488.973633	548.390198
1487.916016	550.655457
1486.858398	564.734314
1485.799805	588.258118
1484.741211	555.083984
1483.682617	573.877747
1482.624023	583.219910
1481.565430	512.291809
1480.505859	566.488586
1479.446289	538.067810
1478.386719	568.645325
1477.327148	542.593445
1476.267578	537.778931
1475.207031	568.339966
1474.147461	549.375549
1473.086914	577.566162
1472.026367	570.391724
1470.964844	560.863342
1469.904297	565.475159
1468.842773	570.085327
1467.781250	551.140808
1466.719727	600.494629
1465.658203	522.689880
1464.595703	569.677002
1463.533203	564.867737
1462.471680	567.119751
1461.409180	583.487549
1460.345703	515.164795
1459.283203	557.407227
1458.219727	550.252808
1457.156250	524.292297
1456.092773	552.406311
1455.029297	578.159973
1453.965820	549.858459
1452.901367	554.458740
1451.836914	549.661377
1450.772461	542.517151
1449.708008	589.382690
1448.642578	537.627197
1447.578125	549.267334
1446.512695	521.006348
1445.447266	504.487732
1444.381836	556.010010
1443.315430	527.762939
1442.250000	548.775024
1441.183594	569.779541
1440.117188	572.021667
1439.050781	567.231201
1437.983398	553.068420
1436.916992	543.596863
1435.849609	562.240662
1434.782227	573.851074
1433.714844	536.278809
1432.647461	594.717834
1431.579102	587.588135
1430.510742	580.460999
1429.442383	585.037109
1428.374023	552.175903
1427.305664	608.220215
1426.236328	558.994385
1425.167969	556.555603
1424.098633	554.117615
1423.028320	556.355774
1421.958984	549.244263
1420.889648	593.544678
1419.819336	602.783569
1418.749023	576.979858
1417.678711	581.547302
1416.608398	534.740662
1415.537109	579.003784
1414.465820	543.885681
1413.395508	529.784851
1412.323242	541.356873
1411.251953	562.256775
1410.180664	587.814331
1409.108398	583.044373
1408.036133	496.664551
1406.963867	566.515503
1405.891602	608.370300
1404.818359	547.667908
1403.746094	533.588989
1402.672852	531.163452
1401.599609	526.409485
1400.525391	584.535583
1399.452148	565.803223
1398.377930	495.861816
1397.303711	546.979248
1396.229492	509.646484
1395.155273	530.495483
1394.081055	542.031677
1393.005859	514.023438
1391.930664	572.067993
1390.855469	523.138855
1389.780273	536.992615
1388.704102	576.407898
1387.628906	532.151855
1386.552734	573.877136
1385.476562	555.190186
1384.400391	522.574524
1383.323242	564.278992
1382.247070	547.925415
1381.169922	538.541626
1380.092773	589.504150
1379.014648	533.706970
1377.937500	575.371765
1376.859375	572.948608
1375.782227	533.418884
1374.704102	579.698730
1373.625000	496.132812
1372.546875	542.402710
1371.467773	521.447205
1370.388672	523.670471
1369.309570	551.376709
1368.230469	555.910034
1367.151367	500.228943
1366.071289	518.662537
1364.991211	548.664673
1363.911133	550.880493
1362.831055	546.152832
1361.750977	532.171753
1360.669922	495.061920
1359.588867	534.293030
1358.507812	541.134399
1357.426758	522.539917
1356.345703	561.744812
1355.263672	538.530701
1354.181641	526.879333
1353.099609	545.268066
1352.017578	554.409973
1350.935547	510.427185
1349.852539	572.683838
1348.769531	551.801514
1347.686523	558.627197
1346.603516	523.907043
1345.520508	537.657898
1344.436523	565.246521
1343.352539	519.010376
1342.268555	509.691620
1341.184570	546.493835
1340.100586	557.922607
1339.015625	560.127075
1337.930664	502.410217
1336.845703	516.144897
1335.760742	522.963257
1334.675781	545.902832
1333.589844	564.228088
1332.503906	520.377747
1331.417969	529.492493
1330.332031	557.017639
1329.246094	540.807983
1328.159180	552.214905
1327.072266	526.809998
1325.985352	547.415527
1324.898438	533.518860
1323.811523	512.729431
1322.723633	533.326294
1321.635742	537.826843
1320.547852	540.027771
1319.459961	539.930298
1318.371094	553.615784
1317.283203	505.284180
1316.194336	493.711304
1315.105469	544.132385
1314.016602	532.556580
1312.926758	527.870300
1311.837891	546.132324
1310.748047	532.268188
1309.658203	541.347412
1308.568359	504.554749
1307.477539	538.858887
1306.387695	547.931946
1305.296875	531.787659
1304.206055	550.025818
1303.114258	481.185638
1302.023438	554.408997
1300.931641	549.727722
1299.840820	595.430786
1298.748047	567.846741
1297.656250	542.561951
1296.564453	526.441772
1295.471680	505.750427
1294.378906	530.827576
1293.286133	471.253082
1292.193359	537.497375
1291.099609	541.973816
1290.006836	523.584656
1288.913086	484.628326
1287.819336	493.682983
1286.725586	482.167938
1285.630859	575.755188
1284.536133	552.807800
1283.442383	566.411316
1282.346680	545.757385
1281.251953	490.864471
1280.157227	525.015869
1279.061523	524.920898
1277.965820	492.880005
1276.870117	538.419617
1275.774414	488.139648
1274.677734	510.857483
1273.581055	503.924438
1272.485352	483.315155
1271.387695	553.888367
1270.291016	505.929901
1269.194336	533.180969
1268.096680	508.024933
1266.999023	507.932953
1265.901367	482.790588
1264.803711	478.149384
1263.705078	532.698547
1262.606445	457.491577
1261.507812	493.819397
1260.409180	514.207275
1259.310547	516.388977
1258.210938	541.314209
1257.111328	577.600464
1256.011719	472.910004
1254.912109	504.649078
1253.812500	525.012695
1252.711914	522.645264
1251.612305	499.830994
1250.511719	520.184387
1249.410156	540.530334
1248.309570	483.664307
1247.208008	501.739166
1246.107422	499.378357
1245.005859	483.401459
1243.903320	524.157288
1242.801758	535.405640
1241.699219	499.016479
1240.597656	512.533081
1239.495117	487.498413
1238.391602	528.216492
1237.289062	521.320862
1236.185547	484.967163
1235.082031	518.866089
1233.978516	514.241272
1232.875000	484.703400
1231.771484	552.552307
1230.666992	500.376678
1229.562500	498.022186
1228.458008	502.458527
1227.353516	441.268646
1226.248047	552.051392
1225.143555	493.136780
1224.038086	506.617432
1222.931641	508.786804
1221.826172	533.564026
1220.720703	490.518555
1219.614258	508.509918
1218.507812	512.936890
1217.401367	463.140900
1216.294922	544.374146
1215.187500	460.714417
1214.080078	496.758698
1212.972656	521.501953
1211.865234	483.035339
1210.757812	528.082947
1209.649414	525.730713
1208.541016	541.426880
1207.432617	491.706787
1206.324219	523.189270
1205.215820	527.603699
1204.106445	500.456207
1202.997070	486.841949
1201.887695	502.527954
1200.778320	531.726685
1199.668945	506.850739
1198.558594	488.740601
1197.448242	522.429565
1196.337891	520.083252
1195.227539	506.482544
1194.117188	549.152405
1193.005859	495.047424
1191.894531	521.955139
1190.783203	476.872345
1189.671875	508.271545
1188.559570	514.924927
1187.447266	521.575806
1186.334961	499.003387
1185.222656	507.902100
1184.110352	519.044495
1182.998047	525.689758
1181.884766	489.656128
1180.771484	527.744324
1179.658203	484.987457
1178.543945	491.633972
1177.430664	484.811096
1176.316406	567.754150
1175.202148	511.558929
1174.087891	547.358215
1172.972656	527.072876
1171.858398	511.279816
1170.743164	464.103821
1169.627930	470.744293
1168.512695	513.242065
1167.396484	495.222076
1166.281250	472.727814
1165.165039	575.682190
1164.048828	506.149811
1162.931641	539.645569
1161.815430	479.100159
1160.698242	483.489716
1159.581055	519.209229
1158.463867	492.263977
1157.346680	525.731689
1156.228516	501.031738
1155.111328	516.594910
1153.993164	451.658752
1152.875000	511.935760
1151.755859	540.899109
1150.637695	518.453491
1149.518555	520.593384
1148.399414	493.691742
1147.280273	502.535797
1146.160156	495.745026
1145.041016	486.723999
1143.920898	491.099884
1142.800781	533.415833
1141.680664	484.226562
1140.559570	508.679901
1139.439453	530.893677
1138.318359	512.955017
1137.197266	501.712372
1136.075195	492.703247
1134.954102	499.300507
1133.832031	447.951385
1132.709961	532.541626
1131.587891	534.672363
1130.465820	483.344788
1129.342773	498.845581
1128.220703	454.222961
1127.097656	514.246948
1125.974609	503.024323
1124.850586	471.777466
1123.727539	482.816223
1122.603516	516.096497
1121.479492	447.053772
1120.355469	515.908264
1119.230469	520.260803
1118.106445	477.930206
1116.981445	471.175446
1115.856445	484.422211
1114.730469	473.225250
1113.605469	482.024139
1112.479492	473.052582
1111.353516	475.186737
1110.227539	523.942078
1109.101562	455.036133
1107.974609	508.215881
1106.848633	492.590973
1105.721680	494.719513
1104.594727	523.464111
1103.466797	527.803894
1102.339844	492.231384
1101.211914	501.008911
1100.083984	469.887146
1098.956055	534.066650
1097.827148	558.341125
1096.699219	516.149719
1095.570312	527.129578
1094.441406	509.317902
1093.311523	511.438904
1092.182617	515.772705
1091.052734	486.906738
1089.922852	542.138000
1088.792969	453.542786
1087.663086	455.671906
1086.532227	515.301697
1085.402344	442.238251
1084.271484	493.005554
1083.139648	541.543884
1082.008789	497.245300
1080.876953	472.849091
1079.746094	463.925995
1078.614258	468.258728
1077.481445	463.756378
1076.349609	507.830811
1075.216797	536.436157
1074.083984	527.509521
1072.951172	511.965790
1071.818359	505.253143
1070.685547	461.041901
1069.551758	513.890503
1068.417969	478.514343
1067.284180	498.269409
1066.149414	456.296021
1065.015625	489.271454
1063.880859	473.757294
1062.746094	471.467499
1061.611328	495.611115
1060.476562	504.329681
1059.340820	513.045044
1058.205078	515.152649
1057.069336	532.667236
1055.933594	534.770447
1054.796875	490.666565
1053.661133	497.176453
1052.524414	541.075317
1051.387695	481.600830
1050.250000	543.075928
1049.113281	490.217621
1047.975586	476.940582
1046.837891	498.828064
1045.700195	505.327942
1044.561523	450.318512
1043.423828	467.806244
1042.285156	483.091644
1041.146484	509.348816
1040.007812	485.109772
1038.868164	489.410248
1037.728516	456.406647
1036.589844	451.935303
1035.449219	480.367462
1034.309570	462.734985
1033.169922	504.310638
1032.029297	497.641479
1030.888672	504.125824
1029.748047	504.033447
1028.606445	451.355927
1027.465820	468.798370
1026.324219	530.039307
1025.182617	486.145264
1024.041016	468.540588
1022.898438	534.125916
1021.756836	470.557434
1020.614258	507.671204
1019.471680	487.887573
1018.328125	494.360413
1017.185547	496.456787
1016.041992	459.192993
1014.898438	470.039917
1013.754883	485.254517
1012.610352	458.940338
1011.466797	467.596283
1010.322266	500.279907
1009.177734	506.740814
1008.033203	526.302307
1006.887695	484.720612
1005.742188	478.082581
1004.597656	526.012634
1003.451172	475.724915
1002.305664	512.728577
1001.160156	466.824615
1000.013672	482.006073
998.867188	468.833862
997.720703	518.892883
996.573242	503.538879
995.426758	501.267029
994.279297	485.921814
993.131836	488.011230
991.983398	466.139404
990.835938	455.164673
989.687500	463.790771
988.539062	474.590698
987.390625	509.329468
986.242188	500.531036
985.092773	509.142365
983.944336	478.592926
982.794922	498.080200
981.644531	482.766327
980.495117	504.419830
979.344727	497.805695
978.194336	484.673645
977.043945	486.757599
975.893555	482.322906
974.742188	519.162109
973.591797	490.832916
972.440430	475.542694
971.289062	475.455261
970.136719	503.586029
968.985352	544.727844
967.833008	507.740540
966.680664	511.986053
965.528320	498.877686
964.375000	483.605499
963.221680	466.170685
962.069336	541.959229
960.915039	483.338715
959.761719	489.750916
958.608398	444.161377
957.454102	487.404510
956.299805	500.309906
955.145508	426.592712
953.990234	515.281128
952.834961	497.869141
951.680664	499.941742
950.525391	491.194336
949.369141	475.959778
948.213867	523.459351
947.057617	458.483307
945.901367	469.210205
944.745117	490.742432
943.588867	460.391602
942.431641	490.561768
941.274414	492.632111
940.117188	460.137360
938.959961	466.532227
937.801758	481.562622
936.644531	470.678558
935.486328	490.019958
934.328125	470.505188
933.168945	541.628662
932.010742	466.016876
930.851562	481.030640
929.692383	496.038849
928.533203	487.322296
927.373047	487.232513
926.213867	474.209717
925.053711	497.828461
923.893555	474.034943
922.732422	495.490662
921.572266	525.554077
920.411133	475.926392
919.250000	484.451141
918.088867	473.598236
916.926758	451.987701
915.765625	503.550568
914.603516	490.548553
913.441406	499.062622
912.279297	520.477966
911.116211	535.434326
909.953125	445.037994
908.790039	498.694550
907.626953	509.348328
906.463867	511.403107
905.299805	507.012054
904.135742	474.699127
902.971680	470.316437
901.807617	517.467346
900.643555	504.491211
899.478516	493.666260
898.313477	512.888977
897.148438	489.192871
895.982422	467.650726
894.817383	469.709198
893.651367	465.333710
892.485352	478.111786
891.319336	475.879944
890.152344	488.651306
888.986328	469.275787
887.819336	473.473969
886.652344	526.937073
885.484375	458.307739
884.317383	488.200317
883.149414	470.983490
881.981445	453.772980
880.813477	460.109283
879.644531	462.163940
878.475586	442.825287
877.307617	468.409760
876.137695	496.123230
874.968750	489.617371
873.798828	491.664581
872.629883	485.161865
871.459961	459.429626
870.289062	517.029846
869.119141	497.709473
867.948242	510.431671
866.777344	508.202026
865.606445	469.679718
864.435547	482.399963
863.263672	460.969604
862.092773	495.023956
860.920898	503.465729
859.748047	509.771423
858.576172	505.412079
857.403320	518.111511
856.230469	520.147400
855.057617	468.898621
853.884766	505.038269
852.710938	481.508575
851.538086	489.940186
850.364258	523.926025
849.189453	483.370758
848.015625	510.958221
846.840820	498.092072
845.666016	483.102478
844.491211	546.847412
843.316406	497.815582
842.140625	463.691071
840.965820	516.770996
839.790039	514.549072
838.613281	488.943726
837.437500	499.480438
836.260742	512.138306
835.083984	475.924225
833.907227	511.948639
832.730469	509.729980
831.552734	518.129517
830.375977	454.340881
829.198242	509.446808
828.019531	513.597046
826.841797	434.991302
825.663086	502.799194
824.484375	477.252594
823.305664	472.922699
822.126953	491.918091
820.947266	485.467133
819.767578	489.616272
818.587891	514.955444
817.408203	531.810120
816.228516	497.817566
815.047852	468.073578
813.867188	533.632019
812.686523	484.837616
811.504883	501.682159
810.324219	484.657867
809.142578	482.451965
807.960938	490.825012
806.779297	484.388306
805.596680	454.690704
804.415039	509.582031
803.232422	454.522064
802.048828	492.483704
800.866211	507.185272
799.682617	445.817657
798.500000	502.772125
797.315430	515.351440
796.131836	483.580231
794.948242	470.822632
793.763672	462.291595
792.579102	485.421600
791.394531	489.551788
790.208984	485.241455
789.024414	474.604614
787.838867	447.100006
786.653320	501.839844
785.466797	484.881256
784.281250	491.114594
783.094727	478.379028
781.908203	457.220154
780.721680	480.307983
779.534180	448.625458
778.347656	486.447113
777.160156	475.829559
775.972656	492.581573
774.784180	490.385406
773.596680	509.232727
772.408203	490.203247
771.219727	494.319153
770.031250	466.887054
768.841797	487.827362
767.653320	527.680664
766.463867	506.563385
765.274414	495.961578
764.083984	472.756836
762.894531	510.482483
761.704102	525.090088
760.513672	480.893127
759.322266	434.612976
758.131836	503.805420
756.940430	453.340576
755.749023	501.519684
754.557617	474.152191
753.365234	415.330414
752.173828	488.656525
750.981445	484.371948
749.789062	480.088928
748.595703	479.999634
747.403320	509.249847
746.209961	477.725769
745.016602	471.352203
743.823242	506.871155
742.628906	477.459167
741.435547	487.838989
740.241211	485.654846
739.046875	521.144653
737.851562	483.381561
736.657227	477.015076
735.461914	481.109833
734.266602	495.660034
733.070312	506.022766
731.875000	462.025665
730.678711	489.112579
729.482422	497.380829
728.286133	451.320404
727.089844	472.126923
725.892578	499.191681
724.695312	471.951080
723.498047	482.302643
722.300781	471.775299
721.102539	459.164734
719.904297	484.119904
718.706055	511.152039
717.507812	500.627075
716.308594	444.223755
715.110352	444.140961
713.911133	448.227783
712.711914	477.325714
711.511719	481.404785
710.311523	483.398651
709.112305	418.728546
707.912109	476.969940
706.710938	462.303894
705.510742	510.105103
704.309570	503.764984
703.108398	457.882782
701.907227	495.253540
700.705078	480.597626
699.502930	488.828491
698.301758	490.817047
697.098633	472.011414
695.896484	482.318146
694.693359	507.171021
693.491211	482.138214
692.287109	506.981812
691.083984	454.952057
689.880859	459.021179
688.676758	502.544800
687.472656	467.154877
686.268555	467.067688
685.063477	471.131470
683.858398	483.494019
682.654297	487.553162
681.448242	499.907990
680.243164	506.036438
679.037109	476.912506
677.832031	499.628052
676.625977	501.607513
675.418945	489.079620
674.212891	433.044708
673.005859	449.536621
671.798828	497.090515
670.591797	470.076965
669.383789	455.496094
668.176758	474.041473
666.968750	498.788879
665.760742	451.102325
664.551758	533.773621
663.343750	467.481781
662.134766	471.530670
660.925781	485.916656
659.715820	508.566650
658.506836	479.534180
657.296875	510.443146
656.086914	471.090210
654.876953	491.660126
653.666016	503.960693
652.456055	474.956116
651.245117	509.966187
650.034180	472.714264
648.822266	495.328430
647.611328	493.172302
646.399414	476.575317
645.187500	476.486176
643.974609	472.272400
642.762695	449.502747
641.549805	459.726410
640.336914	474.068573
639.124023	504.891632
637.910156	490.374390
636.696289	451.142426
635.483398	514.906372
634.268555	477.743713
633.054688	496.183990
631.839844	438.453979
630.625000	483.649780
629.410156	450.636047
628.195312	450.551697
626.979492	471.036652
625.764648	499.740082
624.548828	493.478027
623.332031	450.214386
622.116211	476.850128
620.899414	470.595825
619.682617	468.453064
618.465820	437.551819
617.248047	458.008362
616.031250	498.991852
614.813477	435.252899
613.595703	465.961792
612.376953	451.508331
611.159180	535.552673
609.940430	510.833832
608.721680	457.408051
607.502930	494.236237
606.283203	451.085449
605.063477	477.650970
603.843750	485.759918
602.624023	489.767334
601.403320	510.164032
600.183594	467.050568
598.962891	454.674500
597.742188	479.161652
596.520508	474.977173
595.299805	478.981964
594.078125	478.892151
592.856445	441.971375
591.633789	501.216095
590.412109	472.486542
589.189453	464.217865
587.966797	466.175415
586.743164	492.663147
585.520508	429.210999
584.296875	449.565247
583.073242	449.480896
581.849609	522.934143
580.625000	502.412750
579.401367	453.311768
578.176758	455.268250
576.952148	465.388702
575.726562	438.770996
574.500977	467.254395
573.276367	481.446869
572.049805	507.871887
570.824219	481.266113
569.598633	458.748047
568.372070	458.661896
567.145508	497.299927
565.917969	511.470673
564.691406	458.403534
563.463867	472.576172
562.236328	435.828918
561.008789	521.267456
559.780273	460.095001
558.552734	510.894440
557.324219	482.307709
556.094727	486.286407
554.866211	500.435059
553.636719	490.171478
552.407227	431.107147
551.177734	455.423828
549.948242	487.862366
548.717773	508.094421
547.488281	463.295013
546.256836	483.524048
545.026367	493.589294
543.795898	479.280548
542.564453	497.464630
541.333008	483.160461
540.100586	517.574585
538.869141	525.594543
537.636719	454.482727
536.404297	482.797058
535.171875	482.706238
533.939453	496.809998
532.706055	480.497223
531.472656	468.244629
530.239258	476.263123
529.004883	488.331116
527.771484	482.161560
526.537109	486.121826
525.302734	496.155945
524.067383	425.196472
522.833008	471.676819
521.597656	481.707947
520.362305	457.334045
519.126953	434.992493
517.890625	489.527283
516.654297	465.165588
515.417969	477.210449
514.181641	448.816833
512.944336	440.647034
511.708008	450.668701
510.470703	474.830475
509.233398	460.599823
507.995117	454.453674
506.756836	472.542755
505.518555	474.472778
504.280273	472.364716
503.041992	484.385345
501.802734	482.276154
500.563477	480.167755
499.324219	469.991608
498.084961	482.003540
496.844727	471.830811
495.604492	467.709900
494.364258	473.668549
493.124023	467.533569
491.882812	505.727570
490.642578	481.458557
489.401367	501.508667
488.159180	457.112457
486.917969	497.292877
485.675781	513.302673
484.433594	458.866425
483.191406	511.096863
481.948242	468.752380
480.705078	466.652527
479.462891	486.675018
478.218750	474.519135
476.975586	428.192810
475.731445	464.290497
474.487305	474.250549
473.243164	470.142731
471.999023	458.001343
470.753906	455.906494
469.508789	487.948730
468.263672	435.657959
467.018555	499.808075
465.772461	465.596710
464.526367	453.469788
463.280273	495.512756
462.034180	437.252563
460.787109	481.288055
459.540039	483.202148
458.292969	449.032532
457.045898	456.964630
455.797852	458.882141
454.550781	498.864929
453.302734	464.718079
452.053711	494.671021
450.805664	492.575195
449.556641	480.470367
448.307617	474.374817
447.058594	448.269531
445.808594	452.186462
444.559570	444.099182
443.309570	470.016144
442.059570	469.927277
440.808594	465.839813
439.557617	447.761322
438.307617	501.637695
437.055664	449.590179
435.804688	465.487579
434.552734	479.381500
433.300781	487.279022
432.048828	477.203522
430.796875	459.146637
429.543945	443.092499
428.291016	468.950623
427.038086	448.910339
425.785156	468.773193
424.531250	506.578125
423.278320	468.595795
422.023438	454.551575
420.769531	484.364594
419.515625	452.386658
418.260742	448.315979
417.005859	472.136780
415.750000	495.948547
414.495117	446.070038
413.239258	491.778748
411.983398	487.704376
410.727539	471.690002
409.470703	449.712036
408.214844	473.500885
406.958008	519.161011
405.700195	509.118958
404.443359	558.731750
403.185547	538.745972
401.927734	520.755371
400.669922	496.809845
399.411133	526.518677
398.153320	468.810791
396.894531	468.721954
395.635742	510.333527
394.375977	458.617523
393.116211	498.230225
391.857422	492.181976
390.596680	490.104431
389.336914	466.205292
388.076172	426.447388
386.815430	468.011658
385.554688	454.043854
384.293945	463.869476
383.032227	453.871643
381.770508	471.619965
380.508789	475.492950
379.247070	491.249512
377.984375	413.918030
376.721680	447.501099
375.458984	433.558197
374.196289	484.938843
372.932617	441.309570
371.668945	449.140198
370.405273	433.229218
369.141602	474.681671
367.876953	419.222565
366.613281	476.478577
365.347656	470.458008
364.083008	454.557983
362.818359	409.024536
361.552734	438.580719
360.287109	478.001709
359.020508	436.439331
357.754883	446.228790
356.488281	461.936768
355.221680	444.085602
353.955078	457.814636
352.687500	455.754730
351.419922	453.695557
350.152344	463.470459
348.884766	489.016327
347.616211	423.865051
346.348633	443.495422
345.080078	394.143250
343.810547	443.326904
342.541992	457.032410
341.272461	413.614532
340.002930	460.797150
338.733398	450.865356
337.462891	464.558929
336.193359	438.885376
334.922852	446.672821
333.651367	395.436859
332.380859	456.337860
331.109375	428.718689
329.837891	469.927887
328.566406	477.701935
327.293945	414.715790
326.022461	434.287933
324.750000	451.887909
323.477539	443.944519
322.204102	426.184235
320.930664	437.884796
319.657227	490.808838
318.383789	459.309662
317.110352	441.559845
315.835938	468.945435
314.561523	457.085724
313.287109	437.385040
312.011719	452.989746
310.737305	421.533600
309.461914	439.095581
308.185547	429.212616
306.910156	425.211884
305.633789	432.967438
304.357422	450.513794
303.081055	444.552856
301.804688	442.510162
300.527344	422.849518
299.250000	432.555298
297.972656	434.429810
296.694336	438.260071
295.416992	428.395844
294.138672	416.579590
292.860352	420.411041
291.581055	439.881195
290.301758	390.931000
289.022461	404.536469
287.743164	461.122772
286.463867	414.149963
285.183594	427.743195
283.903320	453.047943
282.623047	429.532532
281.342773	427.498596
280.061523	450.837189
278.780273	417.579071
277.499023	431.155975
276.216797	466.183807
274.935547	423.190765
273.653320	409.461365
272.370117	419.130463
271.087891	432.694031
269.804688	428.714081
268.521484	403.304016
267.238281	430.498474
265.955078	403.150116
264.670898	436.175842
263.386719	438.039429
262.102539	424.330536
260.817383	408.680756
259.533203	439.734406
258.248047	389.071198
256.962891	433.731598
255.676758	416.147247
254.390625	384.959930
253.104492	419.876099
251.818359	402.304443
250.532227	433.317657
249.245117	456.548004
247.958008	466.172729
246.670898	440.837494
245.382812	429.103424
244.095703	425.138916
242.807617	415.353180
241.518555	397.809052
240.230469	428.775604
238.941406	380.198914
237.652344	428.611755
236.363281	413.017456
235.074219	403.245148
233.784180	397.353149
232.494141	377.897797
231.204102	420.452057
229.913086	408.748505
228.622070	431.912262
227.331055	391.164093
226.040039	416.258423
224.749023	408.435974
223.457031	406.422516
222.165039	388.930023
220.873047	408.201691
219.580078	396.518188
218.287109	396.442352
216.994141	429.235931
215.701172	407.889435
214.407227	363.358002
213.114258	421.260040
211.820312	378.675110
210.525391	407.577332
209.231445	415.224426
207.936523	420.937683
206.641602	397.690674
205.346680	366.731842
204.050781	389.819244
202.754883	434.121460
201.458984	439.825531
200.163086	368.379791
198.866211	395.305725
197.569336	393.302094
196.272461	391.299194
194.975586	404.714722
193.677734	406.564056
192.379883	393.000854
191.082031	404.482208
189.784180	400.553253
188.485352	390.849670
187.187500	371.524780
185.887695	373.378235
184.588867	415.640442
183.289062	353.996216
181.989258	365.469513
180.689453	392.323639
179.389648	417.244659
178.088867	363.336975
176.788086	392.098083
175.487305	413.161407
174.186523	409.239563
172.884766	393.793518
171.583008	407.162048
170.281250	409.004181
168.979492	403.166229
167.676758	420.364136
166.374023	370.386841
165.071289	387.584381
163.767578	389.428406
162.463867	381.681702
161.160156	366.267426
159.856445	387.287048
158.552734	402.547882
157.248047	367.973145
155.943359	423.471130
154.638672	388.905609
153.333008	409.900635
152.027344	367.690735
150.721680	421.231415
149.416016	363.720917
148.110352	388.532471
146.803711	434.383942
145.497070	451.519470
144.189453	470.561279
142.882812	481.945831
141.575195	472.292664
140.267578	456.907959
138.959961	418.592560
137.651367	407.046082
136.342773	414.610474
135.034180	376.325195
133.725586	404.901581
132.416016	381.909241
131.106445	337.924713
129.796875	389.397705
128.487305	341.611725
127.176758	337.729919
125.866211	328.126434
124.555664	366.210266
123.244141	322.279358
121.933594	331.750458
120.622070	324.061707

