#Wave		#Intensity
1998.943359	560.569397
1997.975586	594.151917
1997.007812	596.631165
1996.039062	526.803223
1995.071289	562.858276
1994.102539	609.226624
1993.133789	575.567200
1992.165039	559.983459
1991.196289	596.007446
1990.227539	567.527222
1989.257812	570.007507
1988.288086	580.223145
1987.318359	531.133911
1986.348633	623.844666
1985.378906	554.145508
1984.409180	628.781006
1983.438477	574.564392
1982.467773	559.007751
1981.497070	538.305298
1980.526367	551.087219
1979.555664	605.060364
1978.584961	579.212036
1977.613281	540.503601
1976.641602	609.890503
1975.669922	586.627747
1974.698242	609.677673
1973.726562	547.842590
1972.753906	614.608093
1971.782227	583.647278
1970.809570	560.409241
1969.836914	588.584045
1968.863281	578.202148
1967.890625	601.225281
1966.917969	601.120361
1965.944336	567.625671
1964.970703	549.550659
1963.997070	580.265259
1963.023438	590.432312
1962.048828	549.262878
1961.075195	554.299377
1960.100586	633.740906
1959.125977	525.887451
1958.151367	600.176453
1957.176758	574.427551
1956.201172	587.147034
1955.226562	597.298584
1954.250977	584.378906
1953.275391	574.026367
1952.299805	532.931396
1951.323242	558.455505
1950.347656	609.583435
1949.371094	596.672791
1948.394531	619.612000
1947.417969	586.224609
1946.441406	565.646301
1945.464844	578.342651
1944.487305	568.007202
1943.509766	621.628967
1942.532227	636.866516
1941.554688	560.037720
1940.577148	593.178284
1939.599609	564.954712
1938.621094	580.191406
1937.642578	559.646240
1936.664062	531.443237
1935.685547	615.651123
1934.707031	587.448120
1933.727539	610.328491
1932.749023	564.263672
1931.769531	533.531616
1930.790039	615.113098
1929.810547	615.005493
1928.830078	563.869080
1927.850586	566.321472
1926.870117	586.626831
1925.889648	650.276855
1924.909180	573.673340
1923.928711	606.712769
1922.948242	611.704163
1921.966797	598.855530
1920.985352	563.080505
1920.003906	557.887085
1919.022461	629.105042
1918.041016	544.959229
1917.059570	595.785706
1916.077148	542.222839
1915.094727	600.667603
1914.112305	587.838684
1913.129883	572.469910
1912.147461	595.264526
1911.164062	536.661621
1910.180664	602.685059
1909.197266	628.004822
1908.213867	605.016113
1907.230469	615.076782
1906.247070	607.345520
1905.262695	586.913147
1904.278320	566.487976
1903.294922	546.069885
1902.309570	609.459595
1901.325195	616.969788
1900.340820	601.630554
1899.355469	631.982178
1898.370117	606.495117
1897.384766	593.702942
1896.399414	547.937439
1895.414062	601.103821
1894.427734	621.285400
1893.442383	583.145325
1892.456055	590.648071
1891.469727	557.595764
1890.482422	625.918274
1889.496094	590.337646
1888.508789	567.435425
1887.522461	612.925476
1886.535156	615.350342
1885.547852	592.455750
1884.559570	622.728943
1883.572266	632.743652
1882.583984	569.369507
1881.595703	566.739563
1880.607422	553.992004
1879.619141	612.066467
1878.630859	571.499023
1877.641602	652.304871
1876.653320	583.937988
1875.664062	571.198486
1874.674805	555.936401
1873.684570	608.896240
1872.695312	540.584839
1871.705078	618.785278
1870.715820	631.302795
1869.725586	626.142517
1868.735352	626.032715
1867.744141	598.160156
1866.753906	560.203613
1865.762695	557.582336
1864.771484	592.800232
1863.780273	585.129883
1862.789062	549.723877
1861.797852	642.912781
1860.805664	602.467407
1859.813477	551.954834
1858.821289	635.014648
1857.829102	607.189148
1856.836914	619.677673
1855.844727	586.827393
1854.851562	559.024963
1853.858398	584.103699
1852.865234	561.345947
1851.872070	556.213806
1850.878906	616.508789
1849.884766	641.559753
1848.890625	606.230408
1847.897461	593.548767
1846.903320	575.842346
1845.908203	585.797852
1844.914062	598.263489
1843.918945	603.184998
1842.923828	585.489197
1841.929688	570.312012
1840.933594	567.699890
1839.938477	617.830261
1838.943359	592.611084
1837.947266	617.613159
1836.951172	604.953735
1835.955078	602.337708
1834.958984	597.213257
1833.961914	592.090576
1832.965820	581.952881
1831.968750	609.438354
1830.971680	534.105164
1829.974609	556.575134
1828.977539	581.543823
1827.979492	651.615601
1826.982422	601.385559
1825.984375	633.849182
1824.986328	613.698608
1823.988281	578.528381
1822.989258	608.474792
1821.991211	615.878479
1820.992188	523.154358
1819.993164	650.699585
1818.994141	550.495117
1817.995117	657.976135
1816.995117	592.824768
1815.996094	605.225159
1814.996094	640.125549
1813.996094	545.010986
1812.996094	607.405396
1811.996094	599.801025
1810.995117	607.191711
1809.994141	612.081421
1808.993164	601.982300
1807.992188	511.969543
1806.991211	596.776550
1805.990234	569.209656
1804.988281	606.550842
1803.986328	581.487549
1802.984375	621.308655
1801.982422	591.261963
1800.980469	593.652222
1799.977539	563.620972
1798.975586	595.936707
1797.972656	580.873657
1796.969727	538.397461
1795.966797	625.527649
1794.962891	607.975586
1793.959961	580.464600
1792.956055	620.215576
1791.952148	557.846680
1790.948242	592.607727
1789.943359	609.929932
1788.939453	572.486389
1787.934570	624.646851
1786.929688	602.143066
1785.924805	554.769592
1784.919922	616.854797
1783.915039	589.390442
1782.909180	586.800171
1781.903320	633.930847
1780.897461	596.535645
1779.891602	579.034668
1778.885742	534.208191
1777.879883	578.830566
1776.873047	541.471313
1775.866211	566.209656
1774.859375	605.836853
1773.852539	568.492554
1772.844727	588.248840
1771.837891	533.549377
1770.830078	625.259216
1769.822266	644.994995
1768.814453	654.802551
1767.806641	595.170044
1766.797852	609.941711
1765.789062	607.355164
1764.781250	599.812378
1763.772461	557.578430
1762.762695	587.212341
1761.753906	651.517334
1760.744141	619.203796
1759.735352	559.661499
1758.725586	599.177795
1757.714844	616.400635
1756.705078	594.016296
1755.695312	534.520325
1754.684570	591.332458
1753.673828	549.174255
1752.663086	593.597107
1751.652344	630.585632
1750.640625	632.946777
1749.629883	563.618713
1748.618164	583.291809
1747.606445	598.015686
1746.594727	612.734375
1745.583008	582.982971
1744.570312	563.121399
1743.557617	575.368958
1742.545898	592.550110
1741.533203	631.941833
1740.519531	582.468506
1739.506836	604.574524
1738.493164	552.656189
1737.479492	589.560303
1736.465820	638.783020
1735.452148	614.011108
1734.438477	579.386047
1733.423828	571.888611
1732.410156	589.039795
1731.395508	628.362366
1730.380859	578.976746
1729.366211	561.631409
1728.350586	551.680725
1727.334961	613.143860
1726.320312	573.643677
1725.304688	608.004028
1724.288086	615.279968
1723.272461	588.103699
1722.256836	617.522705
1721.240234	585.435974
1720.223633	533.685486
1719.207031	590.146912
1718.190430	585.125549
1717.172852	570.273682
1716.155273	572.630493
1715.138672	579.900818
1714.121094	619.106689
1713.102539	614.084534
1712.084961	611.520020
1711.066406	599.134521
1710.048828	557.292969
1709.030273	598.922607
1708.011719	522.737488
1706.992188	591.349548
1705.973633	556.898743
1704.954102	583.781738
1703.934570	588.583313
1702.915039	603.191162
1701.895508	585.923523
1700.875977	656.902588
1699.855469	600.420349
1698.834961	597.863831
1697.814453	573.259705
1696.793945	590.304016
1695.773438	597.546448
1694.751953	641.514160
1693.730469	597.334900
1692.709961	545.828308
1691.687500	592.229004
1690.666016	616.592102
1689.644531	650.731995
1688.622070	613.927856
1687.599609	608.928162
1686.577148	594.149963
1685.554688	601.378601
1684.532227	576.830139
1683.508789	598.721863
1682.485352	623.049133
1681.461914	583.852417
1680.438477	615.501038
1679.415039	642.254333
1678.391602	590.867004
1677.367188	612.732788
1676.342773	671.201843
1675.318359	612.515686
1674.293945	636.805847
1673.268555	600.101501
1672.244141	617.068176
1671.218750	577.941650
1670.193359	599.782471
1669.167969	619.177856
1668.141602	577.634399
1667.116211	611.647827
1666.089844	592.048096
1665.063477	601.687073
1664.037109	545.562805
1663.010742	574.687500
1661.983398	637.887390
1660.957031	606.128967
1659.929688	567.080383
1658.902344	581.580139
1657.875000	622.837280
1656.846680	622.726868
1655.819336	573.974487
1654.791016	617.642639
1653.762695	649.139099
1652.734375	612.561951
1651.705078	597.871033
1650.676758	609.914673
1649.647461	624.383545
1648.618164	580.549377
1647.588867	629.019287
1646.559570	611.910156
1645.529297	657.929443
1644.500000	621.402405
1643.469727	638.280579
1642.439453	669.711670
1641.409180	601.663086
1640.377930	647.643311
1639.347656	652.378723
1638.316406	669.236267
1637.285156	656.995789
1636.253906	635.063965
1635.222656	690.691223
1634.190430	613.031067
1633.158203	639.570984
1632.125977	670.945862
1631.093750	673.248474
1630.061523	641.651611
1629.029297	680.272034
1627.996094	626.900940
1626.962891	660.670105
1625.929688	602.482178
1624.896484	643.501160
1623.863281	669.993042
1622.829102	689.220581
1621.794922	652.829773
1620.760742	662.383606
1619.726562	650.180786
1618.692383	662.148254
1617.657227	676.527588
1616.622070	647.418457
1615.587891	688.363708
1614.551758	705.145508
1613.516602	712.263550
1612.481445	661.442444
1611.445312	649.256897
1610.409180	663.620483
1609.373047	675.566162
1608.336914	622.375305
1607.300781	651.207153
1606.263672	677.617310
1605.226562	675.085815
1604.189453	629.164490
1603.152344	670.025391
1602.115234	636.169922
1601.077148	604.735779
1600.039062	679.303406
1599.000977	664.731873
1597.962891	703.141968
1596.924805	688.571350
1595.885742	664.377197
1594.847656	731.647583
1593.808594	637.671387
1592.769531	685.675537
1591.730469	627.822693
1590.690430	658.976257
1589.651367	682.904907
1588.611328	627.487549
1587.571289	692.276794
1586.531250	660.910522
1585.490234	665.598694
1584.450195	617.431091
1583.409180	677.371826
1582.368164	614.809631
1581.327148	645.915405
1580.285156	705.819031
1579.244141	633.683838
1578.202148	676.769043
1577.160156	679.047974
1576.118164	698.119324
1575.076172	611.645081
1574.033203	714.657898
1572.991211	644.995728
1571.948242	640.086182
1570.905273	620.796997
1569.862305	644.651123
1568.818359	646.932312
1567.775391	620.465210
1566.731445	663.468140
1565.687500	639.402283
1564.643555	656.048706
1563.598633	677.476990
1562.554688	655.814880
1561.509766	658.091064
1560.464844	581.409546
1559.419922	645.895447
1558.374023	662.522766
1557.329102	660.013306
1556.283203	633.595459
1555.237305	628.701477
1554.191406	650.100037
1553.145508	657.153076
1552.098633	623.586792
1551.052734	625.864380
1550.005859	654.413208
1548.958984	618.477356
1547.912109	658.954834
1546.864258	668.385681
1545.816406	610.986450
1544.769531	615.649963
1543.721680	665.642212
1542.672852	646.440369
1541.625000	703.564148
1540.576172	670.055054
1539.528320	662.783203
1538.479492	681.734436
1537.430664	645.863831
1536.380859	626.685852
1535.332031	633.721252
1534.282227	626.462219
1533.232422	595.390076
1532.182617	640.525391
1531.132812	635.649658
1530.082031	687.902405
1529.031250	671.120605
1527.981445	644.826965
1526.929688	692.292053
1525.878906	611.296509
1524.828125	634.968994
1523.776367	622.966919
1522.724609	606.214478
1521.672852	637.005737
1520.621094	639.268433
1519.569336	629.650085
1518.516602	610.532715
1517.463867	627.049988
1516.411133	636.437012
1515.358398	657.692383
1514.305664	588.731262
1513.251953	645.589905
1512.198242	643.101440
1511.144531	626.378052
1510.090820	600.171692
1509.037109	671.218323
1507.982422	666.355591
1506.927734	583.253296
1505.873047	704.045776
1504.818359	658.888000
1503.763672	635.073486
1502.708984	634.959961
1501.653320	592.207458
1500.597656	629.996094
1499.541992	629.883423
1498.486328	653.446411
1497.429688	610.721130
1496.373047	636.645752
1495.317383	601.037537
1494.260742	655.344971
1493.203125	610.284302
1492.146484	636.190369
1491.088867	636.076538
1490.031250	647.783630
1488.973633	624.030212
1487.916016	590.832031
1486.858398	590.726318
1485.799805	642.595215
1484.741211	628.307861
1483.682617	623.472168
1482.624023	635.166626
1481.565430	616.166626
1480.505859	578.290405
1479.446289	592.346619
1478.386719	632.352478
1477.327148	587.416321
1476.267578	587.311218
1475.207031	615.505127
1474.147461	577.669556
1473.086914	624.714417
1472.026367	645.815430
1470.964844	572.646179
1469.904297	626.734985
1468.842773	636.045654
1467.781250	654.774170
1466.719727	631.108032
1465.658203	623.931641
1464.595703	607.341614
1463.533203	574.282166
1462.471680	614.183594
1461.409180	592.898621
1460.345703	646.896484
1459.283203	649.132446
1458.219727	554.955811
1457.156250	648.899841
1456.092773	639.380920
1455.029297	627.515076
1453.965820	632.102234
1452.901367	622.591370
1451.836914	641.271606
1450.772461	643.505188
1449.708008	598.775208
1448.642578	647.969910
1447.578125	647.853760
1446.512695	626.615723
1445.447266	610.078186
1444.381836	640.467224
1443.315430	649.734802
1442.250000	616.785583
1441.183594	572.124329
1440.117188	581.399109
1439.050781	616.453796
1437.983398	588.221069
1436.916992	644.349670
1435.849609	595.038025
1434.782227	655.829773
1433.714844	634.635620
1432.647461	632.180359
1431.579102	646.112854
1430.510742	620.250671
1429.442383	662.262024
1428.374023	657.463684
1427.305664	650.327759
1426.236328	636.177734
1425.167969	629.048096
1424.098633	586.850281
1423.028320	624.147034
1421.958984	588.976807
1420.889648	668.321960
1419.819336	607.456299
1418.749023	626.034851
1417.678711	646.942200
1416.608398	646.826050
1415.537109	614.024170
1414.465820	644.259460
1413.395508	662.814575
1412.323242	637.027710
1411.251953	653.244385
1410.180664	655.459656
1409.108398	643.680969
1408.036133	685.536987
1406.963867	692.407837
1405.891602	617.693970
1404.818359	643.218506
1403.746094	596.501282
1402.672852	619.690674
1401.599609	624.237793
1400.525391	642.756226
1399.452148	656.611145
1398.377930	621.573303
1397.303711	621.461548
1396.229492	567.825317
1395.155273	653.812378
1394.081055	632.757996
1393.005859	648.925537
1391.930664	658.110718
1390.855469	623.116455
1389.780273	699.717651
1388.704102	655.431519
1387.628906	639.046997
1386.552734	673.782898
1385.476562	608.618530
1384.400391	652.637512
1383.323242	624.654480
1382.247070	631.507263
1381.169922	568.718567
1380.092773	638.242676
1379.014648	645.089233
1377.937500	628.732849
1376.859375	640.217834
1375.782227	649.379456
1374.704102	653.900208
1373.625000	642.190613
1372.546875	688.434265
1371.467773	665.134888
1370.388672	597.818481
1369.309570	664.895447
1368.230469	616.133606
1367.151367	678.551270
1366.071289	680.744568
1364.991211	699.142334
1363.911133	624.948425
1362.831055	613.264832
1361.750977	652.488831
1360.669922	659.311462
1359.588867	636.063110
1358.507812	649.823792
1357.426758	652.018860
1356.345703	614.914062
1355.263672	661.029114
1354.181641	665.531738
1353.099609	672.343201
1352.017578	621.401184
1350.935547	639.766174
1349.852539	706.617981
1348.769531	681.093872
1347.686523	667.120850
1346.603516	676.232483
1345.520508	669.187927
1344.436523	671.374451
1343.352539	682.786987
1342.268555	682.663879
1341.184570	659.481995
1340.100586	677.806824
1339.015625	721.480530
1337.930664	638.383606
1336.845703	654.398010
1335.760742	638.153381
1334.675781	605.790894
1333.589844	628.711304
1332.503906	614.782593
1331.417969	635.390930
1330.332031	637.578064
1329.246094	600.642090
1328.159180	646.551636
1327.072266	687.843628
1325.985352	660.118713
1324.898438	669.198181
1323.811523	662.179749
1322.723633	678.151978
1321.635742	655.045532
1320.547852	671.013245
1319.459961	675.487244
1318.371094	659.285217
1317.283203	615.528015
1316.194336	629.194885
1315.105469	631.377197
1314.016602	610.603699
1312.926758	642.624695
1311.837891	631.035278
1310.748047	674.512268
1309.658203	633.101196
1308.568359	639.867188
1307.477539	609.942383
1306.387695	625.880432
1305.296875	637.228333
1304.206055	657.739197
1303.114258	616.375854
1302.023438	618.555481
1300.931641	648.220642
1299.840820	609.171509
1298.748047	638.827576
1297.656250	670.762207
1296.564453	652.330017
1295.471680	574.404358
1294.378906	631.501770
1293.286133	624.524719
1292.193359	603.826843
1291.099609	631.159363
1290.006836	576.171814
1288.913086	587.497559
1287.819336	587.391296
1286.725586	623.847595
1285.630859	584.894165
1284.536133	605.347351
1283.442383	614.373596
1282.346680	609.695435
1281.251953	611.868286
1280.157227	598.061523
1279.061523	613.929199
1277.965820	659.455200
1276.870117	590.892761
1275.774414	579.380676
1274.677734	604.362610
1273.581055	624.775085
1272.485352	610.983337
1271.387695	608.593384
1270.291016	587.972595
1269.194336	606.094543
1268.096680	599.150452
1266.999023	571.709290
1265.901367	633.093323
1264.803711	628.424927
1263.705078	600.993286
1262.606445	619.093079
1261.507812	584.846008
1260.409180	571.088623
1259.310547	548.236755
1258.210938	611.821533
1257.111328	550.312256
1256.011719	550.212585
1254.912109	586.484070
1253.812500	597.741760
1252.711914	586.271606
1251.612305	604.341125
1250.511719	522.455933
1249.410156	592.766479
1248.309570	590.388367
1247.208008	599.362671
1246.107422	547.046326
1245.005859	583.259033
1243.903320	610.382263
1242.801758	580.778992
1241.699219	551.186401
1240.597656	598.711243
1239.495117	564.591187
1238.391602	578.091003
1237.289062	555.320068
1236.185547	627.737854
1235.082031	534.726624
1233.978516	586.733398
1232.875000	586.627014
1231.771484	543.494019
1230.666992	597.735046
1229.562500	584.044189
1228.458008	579.411621
1227.353516	586.095276
1226.248047	556.576416
1225.143555	560.999634
1224.038086	563.159546
1222.931641	581.147583
1221.826172	578.781311
1220.720703	614.843567
1219.614258	574.051208
1218.507812	549.091064
1217.401367	542.213745
1216.294922	553.409424
1215.187500	578.151428
1214.080078	589.336426
1212.972656	614.062927
1211.865234	546.236206
1210.757812	537.109985
1209.649414	561.832397
1208.541016	543.682800
1207.432617	543.584106
1206.324219	557.016174
1205.215820	561.424438
1204.106445	559.068176
1202.997070	538.681580
1201.887695	538.583740
1200.778320	590.306763
1199.668945	578.936218
1198.558594	558.560669
1197.448242	551.703674
1196.337891	538.094788
1195.227539	603.276978
1194.117188	591.914246
1193.005859	546.802368
1191.894531	537.703796
1190.783203	575.845886
1189.671875	568.994263
1188.559570	530.664978
1187.447266	550.802063
1186.334961	570.931824
1185.222656	532.622986
1184.110352	566.230347
1182.998047	579.606689
1181.884766	550.301636
1180.771484	565.921570
1179.658203	527.648376
1178.543945	498.368683
1177.430664	525.212036
1176.316406	543.069214
1175.202148	560.919861
1174.087891	542.871643
1172.972656	560.715820
1171.858398	520.249634
1170.743164	553.785706
1169.627930	576.101379
1168.512695	567.031616
1167.396484	549.001892
1166.281250	551.142395
1165.165039	575.682190
1164.048828	541.983398
1162.931641	550.841553
1161.815430	505.965576
1160.698242	510.350250
1159.581055	510.257355
1158.463867	579.528931
1157.346680	561.526184
1156.228516	568.134216
1155.111328	514.358582
1153.993164	579.107056
1152.875000	558.881836
1151.755859	563.250305
1150.637695	589.964294
1149.518555	531.764893
1148.399414	531.668030
1147.280273	603.042969
1146.160156	529.241272
1145.041016	540.308289
1143.920898	578.158508
1142.800781	549.038879
1141.680664	526.624268
1140.559570	535.452515
1139.439453	539.816284
1138.318359	579.862183
1137.197266	557.458191
1136.075195	555.127197
1134.954102	557.255005
1133.832031	492.523651
1132.709961	565.964722
1131.587891	554.722534
1130.465820	576.895386
1129.342773	523.342468
1128.220703	565.552124
1127.097656	545.413452
1125.974609	498.572784
1124.850586	554.115967
1123.727539	480.591278
1122.603516	533.892944
1121.479492	518.226501
1120.355469	529.250671
1119.230469	553.610840
1118.106445	497.936584
1116.981445	540.073730
1115.856445	535.531006
1114.730469	533.211548
1113.605469	550.884766
1112.479492	541.900574
1111.353516	555.124695
1110.227539	532.822449
1109.101562	486.111755
1107.974609	512.654419
1106.848633	534.749634
1105.721680	530.215088
1104.594727	530.118286
1103.466797	536.674500
1102.339844	514.403931
1101.211914	554.213379
1100.083984	525.298340
1098.956055	472.017395
1097.827148	494.087585
1096.699219	540.517273
1095.570312	522.699951
1094.441406	564.678528
1093.311523	518.080933
1092.182617	548.976990
1091.052734	515.678467
1089.922852	515.584290
1088.792969	497.790863
1087.663086	526.455872
1086.532227	561.745239
1085.402344	504.151611
1084.271484	568.172302
1083.139648	554.806152
1082.008789	523.765076
1080.876953	545.765076
1079.746094	503.691071
1078.614258	501.390228
1077.481445	510.132019
1076.349609	496.791016
1075.216797	543.058838
1074.083984	478.952148
1072.951172	534.033264
1071.818359	514.078491
1070.685547	527.220154
1069.551758	522.712646
1068.417969	443.232178
1067.284180	504.883606
1066.149414	509.199921
1065.015625	570.816711
1063.880859	486.978424
1062.746094	504.514282
1061.611328	515.435547
1060.476562	532.959717
1059.340820	539.467957
1058.205078	543.772217
1057.069336	537.069397
1055.933594	525.967651
1054.796875	550.074646
1053.661133	530.174866
1052.524414	549.873291
1051.387695	518.985352
1050.250000	534.281189
1049.113281	505.605621
1047.975586	540.679199
1046.837891	536.185242
1045.700195	538.284119
1044.561523	474.481964
1043.423828	527.105591
1042.285156	507.246246
1041.146484	566.430969
1040.007812	539.986450
1038.868164	513.551575
1037.728516	526.623047
1036.589844	519.945007
1035.449219	515.462830
1034.309570	535.105896
1033.169922	495.540039
1032.029297	526.140747
1030.888672	534.811768
1029.748047	490.884735
1028.606445	492.985840
1027.465820	488.514160
1026.324219	545.370972
1025.182617	490.524933
1024.041016	477.298370
1022.898438	512.235535
1021.756836	527.462036
1020.614258	531.741821
1019.471680	490.075409
1018.328125	522.797058
1017.185547	503.017914
1016.041992	526.978638
1014.898438	518.137024
1013.754883	483.068695
1012.610352	515.761536
1011.466797	557.182495
1010.322266	541.787842
1009.177734	515.477722
1008.033203	511.015503
1006.887695	532.755981
1005.742188	526.109131
1004.597656	502.003723
1003.451172	539.009399
1002.305664	523.637695
1001.160156	484.276001
1000.013672	525.626526
998.867188	484.098206
997.720703	512.352234
996.573242	468.661743
995.426758	514.343567
994.279297	501.174988
993.131836	509.797424
991.983398	507.525604
990.835938	513.965881
989.687500	542.177917
988.539062	539.901367
987.390625	494.093109
986.242188	530.998108
985.092773	513.494019
983.944336	546.031006
982.794922	541.580627
981.644531	530.608032
980.495117	528.336304
979.344727	482.588928
978.194336	521.621887
977.043945	480.238525
975.893555	517.084900
974.742188	503.956512
973.591797	525.582153
972.440430	512.456970
971.289062	518.875854
970.136719	488.391632
968.985352	527.365967
967.833008	509.910370
966.680664	470.766815
965.528320	527.075134
964.375000	500.954590
963.221680	511.703644
962.069336	533.287903
960.915039	518.017700
959.761719	526.590576
958.608398	545.993469
957.454102	526.396851
956.299805	498.144043
955.145508	550.023071
953.990234	487.135529
952.834961	541.162109
951.680664	471.806519
950.525391	495.522034
949.369141	512.738464
948.213867	516.970215
947.057617	484.435181
945.901367	516.779907
944.745117	456.152649
943.588867	471.198914
942.431641	490.561768
941.274414	464.543427
940.117188	505.502991
938.959961	490.290802
937.801758	537.708923
936.644531	429.656128
935.486328	511.606750
934.328125	546.044983
933.168945	504.944641
932.010742	511.324097
930.851562	483.187744
929.692383	500.352234
928.533203	547.698486
927.373047	519.570923
926.213867	519.475220
925.053711	506.448853
923.893555	542.985474
922.732422	521.342346
921.572266	560.016663
920.411133	482.386932
919.250000	499.522949
918.088867	533.874390
916.926758	492.881805
915.765625	518.614075
914.603516	524.973022
913.441406	503.364868
912.279297	516.176453
911.116211	524.682617
909.953125	520.286011
908.790039	537.386353
907.626953	509.348328
906.463867	515.700623
905.299805	496.270294
904.135742	511.214447
902.971680	515.415283
901.807617	536.791809
900.643555	498.050903
899.478516	506.544495
898.313477	515.034912
897.148438	512.794312
895.982422	493.392975
894.817383	546.921692
893.651367	493.210846
892.485352	493.119781
891.319336	533.757202
890.152344	507.940186
888.986328	492.846710
887.819336	535.604065
886.652344	518.368958
885.484375	490.432129
884.317383	526.742432
883.149414	494.532654
881.981445	498.722198
880.813477	477.229645
879.644531	500.677612
878.475586	554.066406
877.307617	509.048065
876.137695	519.646301
874.968750	496.031555
873.798828	538.693359
872.629883	495.848267
871.459961	521.399231
870.289062	508.483917
869.119141	525.478699
867.948242	486.938995
866.777344	478.307770
865.606445	510.242981
864.435547	503.745117
863.263672	465.237823
862.092773	520.628662
860.920898	475.732452
859.748047	541.765442
858.576172	496.881927
857.403320	511.715057
856.230469	503.093414
855.057617	530.708008
853.884766	464.549957
852.710938	530.511658
851.538086	513.372131
850.364258	530.315369
849.189453	519.570312
848.015625	555.667053
846.840820	502.349274
845.666016	538.435791
844.491211	536.208313
843.316406	495.688171
842.140625	544.517944
840.965820	484.871552
839.790039	550.695068
838.613281	516.579651
837.437500	495.229553
836.260742	473.887299
835.083984	539.664062
833.907227	492.830231
832.730469	488.491211
831.552734	496.894684
830.375977	505.295013
829.198242	517.937561
828.019531	494.496338
826.841797	485.917084
825.663086	498.556183
824.484375	536.644043
823.305664	542.906799
822.126953	502.519775
820.947266	546.945496
819.767578	506.572662
818.587891	502.240479
817.408203	489.434784
816.228516	512.646179
815.047852	544.320862
813.867188	495.515442
812.686523	512.361145
811.504883	459.346100
810.324219	501.589142
809.142578	503.612152
807.960938	552.178162
806.779297	526.692932
805.596680	501.217194
804.415039	513.810913
803.232422	475.662628
802.048828	500.938354
800.866211	494.505615
799.682617	519.768433
798.500000	549.246826
797.315430	519.575623
796.131836	508.920685
794.948242	483.490509
793.763672	485.511719
792.579102	506.526886
791.394531	497.992340
790.208984	506.338898
789.024414	546.322632
787.838867	523.022644
786.653320	508.165558
785.466797	529.153015
784.281250	516.408020
783.094727	520.526978
781.908203	493.039246
780.721680	560.359314
779.534180	501.281036
778.347656	496.976257
777.160156	522.149231
775.972656	501.001770
774.784180	509.327332
773.596680	498.711395
772.408203	494.410980
771.219727	469.077301
770.031250	483.711823
768.841797	529.881409
767.653320	485.634399
766.463867	456.117218
765.274414	500.164642
764.083984	523.184204
762.894531	520.986206
761.704102	531.391174
760.513672	516.592651
759.322266	524.894897
758.131836	463.920837
756.940430	518.403381
755.749023	535.094238
754.557617	522.406616
753.365234	530.700012
752.173828	553.670898
750.981445	536.793152
749.789062	492.667694
748.595703	526.113159
747.403320	523.919617
746.209961	515.440979
745.016602	536.294067
743.823242	500.587646
742.628906	540.282776
741.435547	517.151184
740.241211	525.428345
739.046875	489.750366
737.851562	573.361633
736.657227	520.950684
735.461914	483.201630
734.266602	478.928894
733.070312	499.749756
731.875000	564.465759
730.678711	466.120087
729.482422	489.021484
728.286133	526.540466
727.089844	501.373749
725.892578	499.191681
724.695312	572.188477
723.498047	551.203003
722.300781	532.312866
721.102539	528.039429
719.904297	484.119904
718.706055	498.634033
717.507812	542.346008
716.308594	550.587158
715.110352	525.462585
713.911133	504.516846
712.711914	531.519897
711.511719	485.572784
710.311523	535.489014
709.112305	545.805359
707.912109	547.786438
706.710938	539.354553
705.510742	560.074585
704.309570	501.683319
703.108398	493.264618
701.907227	528.547913
700.705078	526.368835
699.502930	520.030334
698.301758	526.172546
697.098633	505.280914
695.896484	540.528931
694.693359	538.349548
693.491211	500.841858
692.287109	498.670624
691.083984	492.345367
689.880859	513.023682
688.676758	517.081238
687.472656	510.755981
686.268555	504.433105
685.063477	516.791748
683.858398	491.794342
682.654297	535.271118
681.448242	508.205231
680.243164	470.779785
679.037109	510.089020
677.832031	528.652100
676.625977	528.553406
675.418945	516.020447
674.212891	513.852112
673.005859	534.472107
671.798828	472.235992
670.591797	509.422607
669.383789	492.763947
668.176758	507.162262
666.968750	519.485474
665.760742	500.764954
664.551758	486.189178
663.343750	484.029816
662.134766	506.688660
660.925781	510.729431
659.715820	510.634003
658.506836	545.676819
657.296875	541.441711
656.086914	516.546265
654.876953	532.976135
653.666016	557.661438
652.456055	497.671387
651.245117	512.030823
650.034180	528.449158
648.822266	524.222595
647.611328	534.441956
646.399414	517.837219
645.187500	497.113281
643.974609	511.456573
642.762695	513.422852
641.549805	484.465057
640.336914	542.087097
639.124023	511.073975
637.910156	502.736755
636.696289	512.942749
635.483398	543.741150
634.268555	541.580139
633.054688	529.125671
631.839844	531.085144
630.625000	504.230621
629.410156	543.232483
628.195312	508.156494
626.979492	503.947510
625.764648	520.305481
624.548828	491.421875
623.332031	499.552948
622.116211	487.127075
620.899414	546.630981
619.682617	519.818542
618.465820	497.124603
617.248047	484.708405
616.031250	513.366089
614.813477	535.853821
613.595703	519.331848
612.376953	537.705383
611.159180	543.760376
609.940430	523.143066
608.721680	438.947632
607.502930	481.931580
606.283203	500.294769
605.063477	518.651062
603.843750	504.206482
602.624023	504.111969
601.403320	532.701416
600.183594	512.116882
598.962891	514.068909
597.742188	520.115662
596.520508	507.734222
595.299805	491.263550
594.078125	509.590363
592.856445	538.141052
591.633789	548.269043
590.412109	505.212891
589.189453	501.028107
587.966797	513.201904
586.743164	496.751648
585.520508	523.228638
584.296875	502.695679
583.073242	518.946106
581.849609	492.293488
580.625000	531.005310
579.401367	555.408997
578.176758	496.099487
576.952148	540.912292
575.726562	538.769958
574.500977	501.941406
573.276367	522.247437
572.049805	503.792603
570.824219	532.247681
569.598633	517.875549
568.372070	536.124817
567.145508	513.604858
565.917969	497.206543
564.691406	503.225189
563.463867	547.943909
562.236328	531.548340
561.008789	498.869263
559.780273	478.417358
558.552734	508.859009
557.324219	496.553070
556.094727	504.598450
554.866211	516.709351
553.636719	480.001923
552.407227	522.615723
551.177734	473.722107
549.948242	487.862366
548.717773	534.515320
547.488281	524.254883
546.256836	479.460815
545.026367	546.401306
543.795898	528.020935
542.564453	511.677887
541.333008	537.972778
540.100586	501.336945
538.869141	509.359924
537.636719	501.148376
536.404297	519.311157
535.171875	551.664307
533.939453	533.310364
532.706055	486.579468
531.472656	500.677155
530.239258	472.209808
529.004883	484.278564
527.771484	490.265106
526.537109	484.096313
525.302734	516.407227
524.067383	552.755432
522.833008	536.456482
521.597656	550.523376
520.362305	495.782471
519.126953	521.990967
517.890625	475.367401
516.654297	505.614777
515.417969	479.232544
514.181641	471.055481
512.944336	475.009399
511.708008	517.359619
510.470703	462.707153
509.233398	490.902435
507.995117	504.948517
506.756836	500.814545
505.518555	508.796326
504.280273	460.252808
503.041992	514.659424
501.802734	502.455078
500.563477	500.342865
499.324219	478.060120
498.084961	467.886261
496.844727	477.879944
495.604492	526.173645
494.364258	491.809052
493.124023	497.762024
491.882812	519.831543
490.642578	463.328308
489.401367	513.593201
488.159180	557.798035
486.917969	505.346191
485.675781	499.212036
484.433594	517.231018
483.191406	565.426086
481.948242	498.929596
480.705078	504.869751
479.462891	492.708191
478.218750	506.689941
476.975586	516.645813
475.731445	484.389648
474.487305	508.412689
473.243164	524.389954
471.999023	474.071564
470.753906	490.049255
469.508789	499.996857
468.263672	528.009399
467.018555	497.800812
465.772461	507.741241
464.526367	495.606354
463.280273	559.708740
462.034180	519.488159
460.787109	477.277344
459.540039	485.207153
458.292969	539.239929
457.045898	531.121155
455.797852	484.932220
454.550781	530.920532
453.302734	514.795471
452.053711	528.717224
450.805664	482.563507
449.556641	524.513489
448.307617	488.385895
447.058594	510.306824
445.808594	506.208710
444.559570	484.108124
443.309570	522.017944
442.059570	527.918335
440.808594	541.813660
439.557617	515.725098
438.307617	535.613159
437.055664	499.544647
435.804688	475.476593
434.552734	473.389252
433.300781	511.243561
432.048828	549.083557
430.796875	495.079865
429.543945	512.949402
428.291016	496.888092
427.038086	504.774719
425.785156	522.632202
424.531250	510.566925
423.278320	530.410583
422.023438	480.468994
420.769531	546.156006
419.515625	480.287140
418.260742	460.271088
417.005859	474.128937
415.750000	523.833191
414.495117	503.820190
413.239258	473.859680
411.983398	527.516968
410.727539	507.514557
409.470703	531.296997
408.214844	461.563873
406.958008	491.313293
405.700195	475.310272
404.443359	477.208618
403.185547	495.010132
401.927734	496.903992
400.669922	504.758789
399.411133	490.755127
398.153320	496.621582
396.894531	504.471924
395.635742	484.518982
394.375977	524.134338
393.116211	492.275269
391.857422	517.981812
390.596680	496.057129
389.336914	529.688599
388.076172	483.968201
386.815430	499.741241
385.554688	469.905640
384.293945	487.657654
383.032227	487.565186
381.770508	531.067871
380.508789	483.417816
379.247070	489.268677
377.984375	471.351654
376.721680	497.003448
375.458984	502.848328
374.196289	480.980164
372.932617	522.447205
371.668945	532.241028
370.405273	470.815338
369.141602	520.171997
367.876953	486.456360
366.613281	458.684784
365.347656	517.899170
364.083008	426.889252
362.818359	492.015015
361.552734	523.531006
360.287109	478.001709
359.020508	470.011597
357.754883	517.309509
356.488281	491.548096
355.221680	485.533600
353.955078	511.094788
352.687500	437.998047
351.419922	459.613342
350.152344	467.414886
348.884766	487.044495
347.616211	492.866333
346.348633	510.512512
345.080078	467.059753
343.810547	476.822723
342.541992	480.672028
341.272461	464.823944
340.002930	482.458557
338.733398	498.117615
337.462891	474.401276
336.193359	474.311096
334.922852	493.898132
333.651367	489.869537
332.380859	511.413116
331.109375	452.317871
329.837891	458.130554
328.566406	515.053101
327.293945	483.507507
326.022461	463.764496
324.750000	506.900360
323.477539	485.196014
322.204102	516.527405
320.930664	453.593658
319.657227	482.955902
318.383789	478.938263
317.110352	441.559845
315.835938	465.021210
314.561523	486.511841
313.287109	462.882843
312.011719	480.443695
310.737305	523.485901
309.461914	492.022278
308.185547	497.808228
306.910156	485.956421
305.633789	479.986511
304.357422	530.822754
303.081055	489.595642
301.804688	420.972076
300.527344	524.646606
299.250000	493.230469
297.972656	455.955597
296.694336	483.260010
295.416992	483.167938
294.138672	471.341248
292.860352	465.385223
291.581055	486.801849
290.301758	476.935822
289.022461	513.976318
287.743164	447.445404
286.463867	466.895477
285.183594	464.853333
283.903320	460.859131
282.623047	507.629364
281.342773	456.779327
280.061523	482.064026
278.780273	472.215576
277.499023	479.929260
276.216797	466.183807
274.935547	491.447357
273.653320	458.206757
272.370117	495.158783
271.087891	430.744965
269.804688	477.431580
268.521484	453.960571
267.238281	438.290283
265.955078	469.368042
264.670898	488.750610
263.386719	471.135742
262.102539	490.510529
260.817383	457.333252
259.533203	437.788666
258.248047	478.557587
256.962891	462.906342
255.676758	455.039520
254.390625	484.116272
253.104492	421.819977
251.818359	441.174438
250.532227	489.668396
249.245117	446.834229
247.958008	497.250916
246.670898	444.721527
245.382812	467.936310
244.095703	475.612030
242.807617	477.462067
241.518555	452.143921
240.230469	479.219788
238.941406	459.730316
237.652344	461.581909
236.363281	469.249878
235.074219	443.957367
233.784180	463.255615
232.494141	472.856750
231.204102	443.702850
229.913086	451.366821
228.622070	431.912262
227.331055	455.067139
226.040039	449.171875
224.749023	480.057434
223.457031	439.323395
222.165039	458.589111
220.873047	470.109039
219.580078	450.676758
218.287109	444.788971
216.994141	465.972321
215.701172	419.488159
214.407227	452.264771
213.114258	459.907776
211.820312	450.159668
210.525391	444.278595
209.231445	449.987396
207.936523	419.006775
206.641602	436.301422
205.346680	453.589386
204.050781	455.432373
202.754883	459.204041
201.458984	464.903290
200.163086	472.529053
198.866211	435.800476
197.569336	470.420135
196.272461	470.330048
194.975586	437.477356
193.677734	410.417755
192.379883	431.530365
191.082031	473.822021
189.784180	435.216522
188.485352	433.207764
187.187500	423.499756
185.887695	429.192505
184.588867	432.958801
183.289062	461.734192
181.989258	444.333984
180.689453	426.940430
179.389648	411.476318
178.088867	451.768219
176.788086	434.383148
175.487305	440.064911
174.186523	401.554291
172.884766	449.500916
171.583008	443.652985
170.281250	451.248749
168.979492	393.567017
167.676758	412.686249
166.374023	443.312744
165.071289	435.552765
163.767578	427.795746
162.463867	450.729645
161.160156	441.055023
159.856445	462.060272
158.552734	438.968872
157.248047	444.634216
155.943359	388.980286
154.638672	383.158234
153.333008	430.970276
152.027344	419.397217
150.721680	432.719543
149.416016	403.921661
148.110352	459.348755
146.803711	409.507324
145.497070	453.432709
144.189453	397.872955
142.882812	447.521118
141.575195	434.050354
140.267578	435.878723
138.959961	445.351929
137.651367	389.846954
136.342773	399.325287
135.034180	427.902771
133.725586	404.901581
132.416016	414.371521
131.106445	362.744049
129.796875	448.570892
128.487305	431.308685
127.176758	408.328827
125.866211	387.265503
124.555664	356.673553
123.244141	383.302673
121.933594	356.536407
120.622070	348.842896
119.309570	348.775818
117.998047	306.787476
116.685547	299.107880
115.373047	302.859924
114.060547	281.853119
112.748047	222.773468
111.434570	188.464371
110.121094	165.588333
108.806641	110.370987
107.493164	112.252335
106.178711	85.599709
104.864258	57.055492
103.549805	39.931160
102.234375	39.923473
100.918945	34.213535
99.603516	17.103474
