#Wave		#Intensity
1998.943359	2107.947754
1997.975586	2141.530273
1997.007812	2125.660156
1996.039062	2068.477539
1995.071289	2109.427734
1994.102539	2189.085449
1993.133789	2162.893799
1992.165039	2154.774902
1991.196289	2131.178223
1990.227539	2146.284668
1989.257812	2114.959961
1988.288086	2233.214600
1987.318359	2168.367188
1986.348633	2216.968506
1985.378906	2134.104492
1984.409180	2051.269287
1983.438477	2190.043701
1982.467773	2153.596680
1981.497070	2178.977295
1980.526367	2227.525635
1979.555664	2116.423828
1978.584961	2144.371582
1977.613281	2110.537842
1976.641602	2079.289062
1975.669922	2158.687012
1974.698242	2158.310547
1973.726562	2250.527100
1972.753906	2157.557373
1971.782227	2159.751953
1970.809570	2182.511230
1969.836914	2092.172119
1968.863281	2215.156738
1967.890625	2178.799316
1966.917969	2206.676758
1965.944336	2116.396240
1964.970703	2134.002686
1963.997070	2210.656494
1963.023438	2166.629883
1962.048828	2166.251709
1961.075195	2132.512939
1960.100586	2121.877441
1959.125977	2216.423340
1958.151367	2254.509033
1957.176758	2195.134033
1956.201172	2184.494629
1955.226562	2135.406494
1954.250977	2237.556152
1953.275391	2216.664307
1952.299805	2116.352539
1951.323242	2208.204834
1950.347656	2179.645020
1949.371094	2163.899170
1948.394531	2158.400391
1947.417969	2188.742432
1946.441406	2155.086914
1945.464844	2180.300537
1944.487305	2138.982178
1943.509766	2143.724609
1942.532227	2128.003906
1941.554688	2186.448730
1940.577148	2165.612061
1939.599609	2252.149658
1938.621094	2203.193604
1937.642578	2085.257324
1936.664062	2304.624023
1935.685547	2150.947021
1934.707031	2183.774658
1933.727539	2132.319336
1932.749023	2195.777100
1931.769531	2149.443115
1930.790039	2233.294434
1929.810547	2064.479004
1928.830078	2227.410400
1927.850586	2181.103027
1926.870117	2198.575195
1925.889648	2210.941162
1924.909180	2146.812988
1923.928711	2228.012451
1922.948242	2110.379395
1921.966797	2194.104736
1920.985352	2224.295410
1920.003906	2211.168945
1919.022461	2136.919678
1918.041016	2042.323730
1917.059570	2187.093506
1916.077148	2163.800049
1915.094727	2153.240479
1914.112305	2152.863770
1913.129883	2073.613281
1912.147461	2126.671387
1911.164062	2192.428223
1910.180664	2192.044434
1909.197266	2166.235352
1908.213867	2224.323975
1907.230469	2195.976562
1906.247070	2182.886230
1905.262695	2210.452148
1904.278320	2123.694824
1903.294922	2189.359131
1902.309570	2128.029785
1901.325195	2183.514404
1900.340820	2221.209961
1899.355469	2251.277832
1898.370117	2154.453369
1897.384766	2225.117432
1896.399414	2237.411377
1895.414062	2196.438477
1894.427734	2234.091553
1893.442383	2170.314697
1892.456055	2210.494141
1891.469727	2159.416260
1890.482422	2235.060303
1889.496094	2161.193115
1888.508789	2193.745850
1887.522461	2236.418213
1886.535156	2225.896973
1885.547852	2215.379395
1884.559570	2237.773926
1883.572266	2232.319580
1882.583984	2115.523926
1881.595703	2183.465332
1880.607422	2160.315918
1879.619141	2119.469971
1878.630859	2184.845947
1877.641602	2255.255615
1876.653320	2229.581543
1875.664062	2246.882324
1874.674805	2137.828125
1873.684570	2104.608154
1872.695312	2200.230713
1871.705078	2177.114014
1870.715820	2232.286621
1869.725586	2146.052979
1868.735352	2198.687256
1867.744141	2157.919434
1866.753906	2250.908203
1865.762695	2242.944336
1864.771484	2227.415527
1863.780273	2100.918945
1862.789062	2191.330322
1861.797852	2165.733643
1860.805664	2253.581055
1859.813477	2152.371826
1858.821289	2121.755371
1857.829102	2209.563721
1856.836914	2194.062012
1855.844727	2213.825439
1854.851562	2193.291748
1853.858398	2208.012695
1852.865234	2207.625000
1851.872070	2189.619873
1850.878906	2143.940918
1849.884766	2168.723633
1848.890625	2223.683350
1847.897461	2190.597412
1846.903320	2210.329346
1845.908203	2197.370361
1844.914062	2159.278809
1843.918945	2266.970215
1842.923828	2188.674316
1841.929688	2208.388916
1840.933594	2115.058838
1839.938477	2192.543945
1838.943359	2204.714111
1837.947266	2186.752441
1836.951172	2141.184814
1835.955078	2165.906006
1834.958984	2173.053223
1833.961914	2212.813232
1832.965820	2132.155029
1831.968750	2334.926270
1830.971680	2216.661621
1829.974609	2196.215332
1828.977539	2133.162842
1827.979492	2290.679443
1826.982422	2305.311279
1825.984375	2179.639404
1824.986328	2244.383301
1823.988281	2238.979980
1822.989258	2218.554199
1821.991211	2218.164062
1820.992188	2190.239502
1819.993164	2214.881104
1818.994141	2156.939941
1817.995117	2284.152832
1816.995117	2226.219482
1815.996094	2233.330811
1814.996094	2265.444336
1813.996094	2220.044922
1812.996094	2217.154785
1811.996094	2186.774658
1810.995117	2198.883545
1809.994141	2123.547852
1808.993164	2337.989502
1807.992188	2212.707275
1806.991211	2202.330078
1805.990234	2239.390625
1804.988281	2246.484619
1803.986328	2263.558838
1802.984375	2273.141357
1801.982422	2160.476318
1800.980469	2287.307129
1799.977539	2184.654541
1798.975586	2306.449463
1797.972656	2186.378418
1796.969727	2288.189209
1795.966797	2302.739258
1794.962891	2272.433350
1793.959961	2169.891357
1792.956055	2279.105469
1791.952148	2263.761719
1790.948242	2230.993896
1789.943359	2210.684814
1788.939453	2250.120605
1787.934570	2217.371826
1786.929688	2236.886963
1785.924805	2251.419434
1784.919922	2216.200195
1783.915039	2220.783447
1782.909180	2225.364990
1781.903320	2336.843018
1780.897461	2239.494385
1779.891602	2353.415527
1778.885742	2233.735596
1777.879883	2260.668701
1776.873047	2285.108398
1775.866211	2264.838623
1774.859375	2145.258301
1773.852539	2273.970215
1772.844727	2248.748779
1771.837891	2218.572754
1770.830078	2305.023193
1769.822266	2185.540771
1768.814453	2234.761719
1767.806641	2261.646240
1766.797852	2263.726807
1765.789062	2226.142578
1764.781250	2208.400146
1763.772461	2220.401123
1762.762695	2140.723389
1761.753906	2284.026611
1760.744141	2286.100342
1759.735352	2273.315186
1758.725586	2191.208008
1757.714844	2188.345947
1756.705078	2249.836670
1755.695312	2187.573975
1754.684570	2241.620117
1753.673828	2241.224609
1752.663086	2208.675781
1751.652344	2181.084473
1750.640625	2254.872803
1749.629883	2274.250977
1748.618164	2155.213867
1747.606445	2270.977051
1746.594727	2302.695312
1745.583008	2215.829346
1744.570312	2282.123535
1743.557617	2244.679932
1742.545898	2310.945312
1741.533203	2234.013184
1740.519531	2238.554688
1739.506836	2243.094727
1738.493164	2210.624756
1737.479492	2234.902100
1736.465820	2219.709473
1735.452148	2187.260498
1734.438477	2384.112061
1733.423828	2166.767578
1732.410156	2299.473389
1731.395508	2294.138672
1730.380859	2278.950928
1729.366211	2216.966064
1728.350586	2238.739990
1727.334961	2184.171143
1726.320312	2304.422607
1725.304688	2272.015137
1724.288086	2247.002441
1723.272461	2249.065918
1722.256836	2165.020020
1721.240234	2223.672852
1720.223633	2267.548584
1719.207031	2220.427734
1718.190430	2220.035156
1717.172852	2337.630371
1716.155273	2302.810059
1715.138672	2238.515625
1714.121094	2213.552002
1713.102539	2181.228271
1712.084961	2183.298340
1711.066406	2229.566162
1710.048828	2315.098145
1709.030273	2290.142578
1708.011719	2365.816650
1706.992188	2245.165283
1705.973633	2308.553955
1704.954102	2276.258301
1703.934570	2239.069092
1702.915039	2285.260742
1701.895508	2228.470459
1700.875977	2335.925781
1699.855469	2176.217285
1698.834961	2271.392334
1697.814453	2175.447266
1696.793945	2246.094482
1695.773438	2260.390869
1694.751953	2188.983398
1693.730469	2166.562988
1692.709961	2217.580566
1691.687500	2319.971436
1690.666016	2255.944092
1689.644531	2282.454590
1688.622070	2233.131836
1687.599609	2310.992432
1686.577148	2305.693115
1685.554688	2339.509521
1684.532227	2165.557373
1683.508789	2272.699219
1682.485352	2172.120361
1681.461914	2286.551758
1680.438477	2266.606934
1679.415039	2297.951904
1678.391602	2224.296875
1677.367188	2333.755127
1676.342773	2238.153076
1675.318359	2223.114746
1674.293945	2271.518311
1673.268555	2227.205811
1672.244141	2260.957275
1671.218750	2287.380859
1670.193359	2245.527100
1669.167969	2286.570068
1668.141602	2252.042969
1667.116211	2176.101562
1666.089844	2290.227295
1665.063477	2243.537598
1664.037109	2226.091064
1663.010742	2247.612549
1661.983398	2230.171143
1660.957031	2205.433105
1659.929688	2190.439209
1658.902344	2267.919189
1657.875000	2211.559082
1656.846680	2201.436768
1655.819336	2249.688232
1654.791016	2198.224121
1653.762695	2321.827148
1652.734375	2292.245605
1651.705078	2303.990967
1650.676758	2262.273193
1649.647461	2283.737305
1648.618164	2215.318115
1647.588867	2178.495361
1646.559570	2229.101318
1645.529297	2301.539062
1644.500000	2225.882812
1643.469727	2303.149170
1642.439453	2254.210693
1641.409180	2261.088867
1640.377930	2270.389893
1639.347656	2294.239014
1638.316406	2288.982178
1637.285156	2244.937744
1636.253906	2227.571777
1635.222656	2122.966797
1634.190430	2221.934570
1633.158203	2248.188965
1632.125977	2276.855957
1631.093750	2261.921143
1630.061523	2246.991455
1629.029297	2246.592285
1627.996094	2197.783936
1626.962891	2238.534180
1625.929688	2301.046387
1624.896484	2247.415771
1623.863281	2230.085205
1622.829102	2292.565186
1621.794922	2209.949707
1620.760742	2269.993408
1619.726562	2322.764893
1618.692383	2252.270752
1617.657227	2222.876465
1616.622070	2311.863770
1615.587891	2267.977295
1614.551758	2197.542480
1613.516602	2189.908691
1612.481445	2213.659668
1611.445312	2249.469971
1610.409180	2316.638672
1609.373047	2258.321045
1608.336914	2315.814941
1607.300781	2189.985596
1606.263672	2228.179443
1605.226562	2169.918701
1604.189453	2314.168213
1603.152344	2239.041504
1602.115234	2260.331055
1601.077148	2281.612793
1600.039062	2189.669678
1599.000977	2230.223633
1597.962891	2253.907227
1596.924805	2251.098633
1595.885742	2238.662354
1594.847656	2178.095703
1593.808594	2208.989990
1592.769531	2230.249756
1591.730469	2237.069336
1590.690430	2304.011963
1589.651367	2238.677734
1588.611328	2231.066895
1587.571289	2175.383789
1586.531250	2278.338867
1585.490234	2241.890137
1584.450195	2260.710693
1583.409180	2351.585205
1582.368164	2291.126465
1581.327148	2211.479980
1580.285156	2187.078857
1579.244141	2205.891846
1578.202148	2246.297119
1577.160156	2269.891846
1576.118164	2271.886475
1575.076172	2283.474854
1574.033203	2275.873779
1572.991211	2225.115479
1571.948242	2164.785889
1570.905273	2260.276367
1569.862305	2173.600586
1568.818359	2300.203857
1567.775391	2158.452393
1566.731445	2270.641846
1565.687500	2227.131592
1564.643555	2238.706299
1563.598633	2286.185547
1562.554688	2247.482422
1561.509766	2263.833252
1560.464844	2296.926514
1559.419922	2318.046875
1558.374023	2198.044922
1557.329102	2329.177246
1556.283203	2242.688721
1555.237305	2242.288818
1554.191406	2320.761475
1553.145508	2272.554932
1552.098633	2307.987793
1551.052734	2259.800537
1550.005859	2311.941650
1548.958984	2278.097900
1547.912109	2251.428955
1546.864258	2313.091797
1545.816406	2288.812500
1544.769531	2276.473145
1543.721680	2242.665527
1542.672852	2287.587891
1541.625000	2282.409668
1540.576172	2267.695312
1539.528320	2322.125244
1538.479492	2324.094482
1537.430664	2254.565186
1536.380859	2156.466553
1535.332031	2244.230957
1534.282227	2229.538574
1533.232422	2229.140625
1532.182617	2285.889893
1531.132812	2302.146729
1530.082031	2246.989258
1529.031250	2210.890137
1527.981445	2234.289795
1526.929688	2343.325439
1525.878906	2271.549316
1524.828125	2311.572510
1523.776367	2292.137695
1522.724609	2220.409180
1521.672852	2317.464844
1520.621094	2369.333252
1519.569336	2221.595459
1518.516602	2225.949951
1517.463867	2261.180176
1516.411133	2232.279053
1515.358398	2269.869629
1514.305664	2255.220703
1513.251953	2166.998535
1512.198242	2261.533936
1511.144531	2197.068359
1510.090820	2246.492432
1509.037109	2179.680664
1507.982422	2328.687500
1506.927734	2287.965088
1505.873047	2223.552002
1504.818359	2261.076172
1503.763672	2277.259766
1502.708984	2246.052246
1501.653320	2221.962402
1500.597656	2278.406982
1499.541992	2285.103516
1498.486328	2223.138428
1497.429688	2270.083496
1496.373047	2212.876465
1495.317383	2240.876221
1494.260742	2247.572998
1493.203125	2173.842285
1492.146484	2301.164307
1491.088867	2251.096191
1490.031250	2295.612793
1488.973633	2188.833252
1487.916016	2311.334717
1486.858398	2275.477783
1485.799805	2175.846191
1484.741211	2291.197754
1483.682617	2227.023682
1482.624023	2276.210449
1481.565430	2292.328613
1480.505859	2301.359863
1479.446289	2244.309326
1478.386719	2184.919434
1477.327148	2189.246582
1476.267578	2266.690918
1475.207031	2186.104492
1474.147461	2272.952881
1473.086914	2277.260742
1472.026367	2298.065918
1470.964844	2179.825928
1469.904297	2210.065430
1468.842773	2195.535400
1467.781250	2254.024658
1466.719727	2258.330811
1465.658203	2224.963867
1464.595703	2201.024902
1463.533203	2259.470947
1462.471680	2268.479004
1461.409180	2141.022705
1460.345703	2110.058594
1459.283203	2283.723389
1458.219727	2269.205078
1457.156250	2226.478760
1456.092773	2207.274414
1455.029297	2211.579346
1453.965820	2239.380859
1452.901367	2250.726562
1451.836914	2283.208740
1450.772461	2280.450928
1449.708008	2244.820068
1448.642578	2258.503906
1447.578125	2204.111084
1446.512695	2243.612793
1445.447266	2147.005859
1444.381836	2224.040039
1443.315430	2237.714844
1442.250000	2181.028809
1441.183594	2199.395996
1440.117188	2173.213623
1439.050781	2264.237061
1437.983398	2261.487305
1436.916992	2235.307617
1435.849609	2152.913330
1434.782227	2206.398682
1433.714844	2241.130371
1432.647461	2186.875732
1431.579102	2240.326172
1430.510742	2204.815430
1429.442383	2127.194824
1428.374023	2133.832275
1427.305664	2166.199707
1426.236328	2310.822021
1425.167969	2221.545410
1424.098633	2230.498779
1423.028320	2122.567383
1421.958984	2211.000244
1420.889648	2205.929688
1419.819336	2198.524658
1418.749023	2214.481445
1417.678711	2209.412842
1416.608398	2173.989258
1415.537109	2215.623291
1414.465820	2210.556885
1413.395508	2228.830566
1412.323242	2226.096924
1411.251953	2216.364990
1410.180664	2171.647461
1409.108398	2231.893799
1408.036133	2240.819824
1406.963867	2133.175781
1405.891602	2212.043701
1404.818359	2111.434570
1403.746094	2162.317139
1402.672852	2252.785400
1401.599609	2210.454102
1400.525391	2193.754883
1399.452148	2200.345947
1398.377930	2155.718506
1397.303711	2218.175537
1396.229492	2255.011230
1395.155273	2217.377930
1394.081055	2219.305664
1393.005859	2207.277100
1391.930664	2137.115723
1390.855469	2176.257568
1389.780273	2134.022705
1388.704102	2240.553223
1387.628906	2191.350342
1386.552734	2293.185303
1385.476562	2099.966064
1384.400391	2206.425781
1383.323242	2175.841064
1382.247070	2187.058350
1381.169922	2179.700928
1380.092773	2102.719727
1379.014648	2195.159912
1377.937500	2224.925537
1376.859375	2178.132568
1375.782227	2182.378906
1374.704102	2191.261230
1373.625000	2179.275146
1372.546875	2218.288086
1371.467773	2197.031006
1370.388672	2203.586670
1369.309570	2180.022949
1368.230469	2140.253662
1367.151367	2188.501465
1366.071289	2139.482910
1364.991211	2206.233887
1363.911133	2235.926758
1362.831055	2191.553955
1361.750977	2121.745605
1360.669922	2230.092041
1359.588867	2174.179443
1358.507812	2217.726074
1357.426758	2138.714355
1356.345703	2154.510986
1355.263672	2147.188965
1354.181641	2204.573975
1353.099609	2176.451172
1352.017578	2194.539307
1350.935547	2235.717285
1349.852539	2182.202393
1348.769531	2181.809326
1347.686523	2132.940186
1346.603516	2160.251221
1345.520508	2102.173096
1344.436523	2256.371826
1343.352539	2191.377197
1342.268555	2137.937256
1341.184570	2192.892822
1340.100586	2217.857666
1339.015625	2122.950684
1337.930664	2219.362549
1336.845703	2214.353760
1335.760742	2119.498535
1334.675781	2181.307861
1333.589844	2100.310303
1332.503906	2155.192871
1331.417969	2140.991211
1330.332031	2152.113770
1329.246094	2140.218994
1328.159180	2151.337158
1327.072266	2125.643799
1325.985352	2185.062012
1324.898438	2092.681641
1323.811523	2076.209473
1322.723633	2121.811035
1321.635742	2091.548828
1320.547852	2162.409180
1319.459961	2217.160645
1318.371094	2168.520020
1317.283203	2200.282959
1316.194336	2163.144531
1315.105469	2139.794678
1314.016602	2141.703857
1312.926758	2207.874756
1311.837891	2072.090332
1310.748047	2174.957764
1309.658203	2117.218994
1308.568359	2139.770996
1307.477539	2180.658691
1306.387695	2200.898193
1305.296875	2097.352295
1304.206055	2172.601807
1303.114258	2135.547607
1302.023438	2128.289062
1300.931641	2155.390869
1299.840820	2175.612549
1298.748047	2191.247314
1297.656250	2142.776123
1296.564453	2174.433350
1295.471680	2187.770996
1294.378906	2198.815918
1293.286133	2132.077148
1292.193359	2177.436035
1291.099609	2158.748047
1290.006836	2149.212158
1288.913086	2151.109619
1287.819336	2249.000244
1286.725586	2113.769287
1285.630859	2138.519287
1284.536133	2035.337769
1283.442383	2162.869141
1282.346680	2135.075928
1281.251953	2164.369873
1280.157227	2159.413086
1279.061523	2026.651123
1277.965820	2115.276611
1276.870117	2171.929932
1275.774414	2224.000732
1274.677734	2127.812500
1273.581055	2147.949463
1272.485352	2079.166992
1271.387695	2097.025879
1270.291016	2073.856689
1269.194336	2212.473145
1268.096680	2125.503418
1266.999023	2143.340576
1265.901367	2042.750732
1264.803711	2035.550171
1263.705078	2114.858887
1262.606445	2175.930176
1261.507812	2057.201416
1260.409180	2095.508301
1259.310547	2117.877441
1258.210938	2044.712158
1257.111328	2117.110352
1256.011719	2030.329956
1254.912109	2061.786865
1253.812500	2104.596436
1252.711914	2074.674316
1251.612305	2094.746094
1250.511719	2137.526123
1249.410156	2180.290527
1248.309570	2102.690918
1247.208008	2127.283203
1246.107422	2076.959961
1245.005859	2047.080322
1243.903320	2089.821777
1242.801758	2046.338379
1241.699219	2041.431030
1240.597656	2052.400146
1239.495117	2088.307129
1238.391602	2174.075439
1237.289062	2130.615723
1236.185547	2155.157715
1235.082031	2186.488037
1233.978516	2129.457275
1232.875000	2117.746338
1231.771484	2124.156006
1230.666992	2119.242432
1229.562500	2155.077881
1228.458008	2120.737061
1227.353516	2131.666992
1226.248047	2097.342773
1225.143555	2151.252686
1224.038086	2062.656738
1222.931641	2075.850098
1221.826172	2079.995361
1220.720703	2036.669312
1219.614258	2047.599976
1218.507812	2121.796387
1217.401367	2139.485107
1216.294922	2202.343506
1215.187500	2113.866211
1214.080078	2050.258545
1212.972656	2165.023193
1211.865234	2114.972412
1210.757812	2110.074951
1209.649414	2134.511719
1208.541016	2120.588623
1207.432617	2131.481201
1206.324219	2122.073730
1205.215820	2099.141357
1204.106445	2137.083252
1202.997070	2116.410156
1201.887695	2120.532715
1200.778320	2122.400635
1199.668945	2029.655640
1198.558594	2058.566406
1197.448242	2058.192383
1196.337891	2165.887695
1195.227539	2084.457031
1194.117188	2097.582031
1193.005859	2193.960205
1191.894531	2072.072021
1190.783203	2042.453247
1189.671875	2026.339233
1188.559570	2075.439697
1187.447266	2084.055176
1186.334961	2076.933105
1185.222656	2134.986816
1184.110352	2116.623047
1182.998047	2129.717529
1181.884766	2145.053223
1180.771484	2117.714600
1179.658203	1993.837280
1178.543945	2114.699463
1177.430664	2150.227051
1176.316406	2091.489746
1175.202148	2028.286255
1174.087891	2128.864502
1172.972656	2141.934570
1171.858398	2072.028809
1170.743164	2071.651855
1169.627930	2102.657959
1168.512695	2122.446533
1167.396484	2142.227783
1166.281250	2009.653320
1165.165039	2157.128174
1164.048828	2042.515991
1162.931641	2026.469971
1161.815430	2099.980957
1160.698242	2041.401001
1159.581055	2099.216797
1158.463867	2063.033447
1157.346680	1955.274536
1156.228516	2008.600464
1155.111328	2077.561279
1153.993164	2086.126953
1152.875000	2036.565430
1151.755859	2103.248291
1150.637695	2058.170898
1149.518555	2055.561768
1148.399414	2039.550049
1147.280273	2097.249512
1146.160156	2152.694580
1145.041016	2054.064453
1143.920898	2113.961670
1142.800781	2120.272217
1141.680664	2059.636475
1140.559570	2043.643921
1139.439453	2063.347412
1138.318359	2033.978149
1137.197266	2055.905762
1136.075195	2002.024902
1134.954102	2015.034180
1133.832031	2068.153564
1132.709961	2038.809937
1131.587891	2107.500244
1130.465820	2080.387207
1129.342773	2097.823975
1128.220703	2035.097046
1127.097656	2061.440186
1125.974609	1965.356079
1124.850586	2018.406494
1123.727539	2058.087646
1122.603516	2010.996704
1121.479492	2032.871338
1120.355469	2041.395508
1119.230469	2058.809814
1118.106445	1993.969360
1116.981445	2060.281250
1115.856445	2051.017090
1114.730469	2095.077148
1113.605469	2043.604736
1112.479492	2003.255493
1111.353516	2105.032959
1110.227539	1993.644043
1109.101562	2024.355835
1107.974609	2015.109253
1106.848633	2019.179199
1105.721680	1974.441162
1104.594727	2084.984131
1103.466797	2038.032593
1102.339844	2108.612793
1101.211914	2121.528809
1100.083984	2025.834229
1098.956055	2080.865479
1097.827148	2009.584961
1096.699219	2046.876953
1095.570312	1999.991699
1094.441406	2072.702393
1093.311523	1999.261108
1092.182617	2105.149658
1091.052734	2113.617920
1089.922852	2135.359863
1088.792969	2022.137085
1087.663086	2017.343628
1086.532227	1983.801025
1085.402344	2038.718384
1084.271484	2033.924194
1083.139648	2011.448608
1082.008789	2006.661133
1080.876953	2021.761353
1079.746094	2041.274292
1078.614258	2160.174561
1077.481445	2000.777588
1076.349609	1960.668457
1075.216797	1958.102417
1074.083984	2132.109619
1072.951172	2120.685791
1071.818359	2001.155396
1070.685547	2086.821289
1069.551758	2013.656860
1068.417969	2017.698730
1067.284180	2079.062256
1066.149414	1988.304443
1065.015625	2016.591797
1063.880859	2091.142578
1062.746094	2022.463379
1061.611328	1978.038940
1060.476562	2083.388184
1059.340820	1968.507568
1058.205078	1981.356323
1057.069336	1983.194824
1055.933594	2042.250854
1054.796875	2037.476440
1053.661133	2039.303467
1052.524414	2082.919922
1051.387695	1972.584229
1050.250000	2073.362793
1049.113281	2011.431152
1047.975586	2028.645874
1046.837891	2045.854248
1045.700195	2036.691284
1044.561523	2031.925049
1043.423828	2016.178955
1042.285156	2112.427979
1041.146484	1975.922119
1040.007812	1986.535522
1038.868164	2021.286255
1037.728516	2073.578125
1036.589844	2027.127319
1035.449219	2033.336304
1034.309570	2061.473389
1033.169922	2019.435303
1032.029297	2019.065186
1030.888672	2009.927734
1029.748047	2035.856812
1028.606445	1947.841797
1027.465820	2061.398438
1026.324219	2025.976562
1025.182617	2062.832520
1024.041016	2025.233887
1022.898438	2081.777588
1021.756836	2116.414062
1020.614258	2081.014404
1019.471680	1986.555786
1018.328125	2045.252197
1017.185547	2136.732666
1016.041992	2064.181885
1014.898438	2131.576416
1013.754883	2013.150513
1012.610352	2076.158691
1011.466797	1977.451538
1010.322266	1983.642700
1009.177734	2037.884399
1008.033203	2065.900146
1006.887695	2052.420654
1005.742188	2071.691162
1004.597656	2071.311035
1003.451172	2068.748779
1002.305664	2031.277954
1001.160156	1996.002441
1000.013672	1999.998047
998.867188	2080.313965
997.720703	2042.868286
996.573242	2055.572266
995.426758	2059.553711
994.279297	2041.743286
993.131836	1965.116577
991.983398	1956.042847
990.835938	2016.662598
989.687500	1996.695435
988.539062	2046.400269
987.390625	2019.904907
986.242188	2150.107178
985.092773	2025.690308
983.944336	2047.072388
982.794922	2042.346313
981.644531	2015.875610
980.495117	2150.307129
979.344727	2021.656250
978.194336	1938.694580
977.043945	2025.259277
975.893555	2077.030029
974.742188	2022.342651
973.591797	2061.063965
972.440430	2065.027832
971.289062	2032.082764
970.136719	2079.463135
968.985352	2044.357056
967.833008	2024.452637
966.680664	2037.097046
965.528320	1984.665649
964.375000	2045.022339
963.221680	2022.963867
962.069336	1968.395874
960.915039	1959.364136
959.761719	2000.177490
958.608398	2062.642090
957.454102	1988.610352
956.299805	2070.546631
955.145508	2078.827393
953.990234	2026.483765
952.834961	2039.098755
951.680664	2049.544678
950.525391	2040.512207
949.369141	2035.809692
948.213867	2024.619751
947.057617	2009.108521
945.901367	2000.089600
944.745117	2032.149292
943.588867	1988.545898
942.431641	2029.239990
941.274414	2011.581055
940.117188	2060.896729
938.959961	2077.796387
937.801758	2012.629395
936.644531	2081.349121
935.486328	1947.127808
934.328125	2104.323730
933.168945	2026.252197
932.010742	2047.453857
930.851562	2092.375488
929.692383	2007.879028
928.533203	2007.509155
927.373047	2002.827393
926.213867	1946.415405
925.053711	2055.966797
923.893555	2003.875000
922.732422	1953.956665
921.572266	1916.979980
920.411133	1968.311035
919.250000	2015.316650
918.088867	2051.541504
916.926758	2053.315430
915.765625	1953.948364
914.603516	2005.224731
913.441406	2026.366333
912.279297	2049.650635
911.116211	2042.821777
909.953125	2055.344727
908.790039	1966.834106
907.626953	1942.830688
906.463867	2088.587646
905.299805	2088.202148
904.135742	2059.893555
902.971680	1965.020630
901.807617	1968.952393
900.643555	1987.910034
899.478516	2032.617065
898.313477	1997.906372
897.148438	1999.683228
895.982422	1943.539307
894.817383	1908.863892
893.651367	1996.431763
892.485352	1987.487183
891.319336	2008.556274
890.152344	2012.471924
888.986328	2027.099976
887.819336	1921.747314
886.652344	1987.795044
885.484375	1995.994507
884.317383	2057.721436
883.149414	2048.778076
881.981445	2018.433594
880.813477	2065.141602
879.644531	2011.269043
878.475586	1993.783447
877.307617	2059.719727
876.137695	1943.862183
874.968750	2048.268311
873.798828	1960.245239
872.629883	1987.667603
871.459961	2042.859253
870.289062	1948.476196
869.119141	1960.932617
867.948242	1984.062866
866.777344	1985.831421
865.606445	2030.297363
864.435547	2044.863647
863.263672	2021.010254
862.092773	2048.375000
860.920898	1917.863159
859.748047	2122.270264
858.576172	2047.238770
857.403320	1997.820801
856.230469	1997.451294
855.057617	2052.497070
853.884766	1939.176514
852.710938	2038.954468
851.538086	2062.009277
850.364258	2046.719238
849.189453	2056.987549
848.015625	2048.090820
846.840820	1964.696533
845.666016	2045.204712
844.491211	2119.299561
843.316406	1999.771973
842.140625	1978.131714
840.965820	1990.525269
839.790039	1945.505859
838.613281	2068.444580
837.437500	1989.420044
836.260742	2027.302612
835.083984	2012.054688
833.907227	2047.794556
832.730469	2030.424438
831.552734	1949.356079
830.375977	2048.780273
829.198242	1988.965210
828.019531	1990.719116
826.841797	2043.398071
825.663086	2100.300537
824.484375	2102.032471
823.305664	2021.055298
822.126953	2010.079102
820.947266	2064.825195
819.767578	1962.704102
818.587891	2040.749268
817.408203	2012.827148
816.228516	1993.388672
815.047852	1995.137207
813.867188	2058.294922
812.686523	2110.843262
811.504883	2015.195801
810.324219	2025.404297
809.142578	2018.680664
807.960938	2041.578247
806.779297	1926.977051
805.596680	2028.132080
804.415039	2044.671509
803.232422	2103.485840
802.048828	2056.594971
800.866211	1959.003052
799.682617	2041.041992
798.500000	1970.951172
797.315430	1930.455688
796.131836	1991.336914
794.948242	2047.972900
793.763672	2001.152588
792.579102	2007.112793
791.394531	1989.859253
790.208984	2029.575073
789.024414	2058.729248
787.838867	2007.732056
786.653320	2074.833740
785.466797	1966.931274
784.281250	2021.368652
783.094727	2105.289062
781.908203	2007.976074
780.721680	2018.136230
779.534180	2083.054443
778.347656	2072.138428
777.160156	2086.491455
775.972656	1982.956543
774.784180	2007.844116
773.596680	1978.011475
772.408203	2007.098267
771.219727	2023.553223
770.031250	2050.517578
768.841797	2096.395996
767.653320	2049.755615
766.463867	2066.189941
765.274414	2002.760010
764.083984	2000.286743
762.894531	2027.224609
761.704102	2012.145264
760.513672	1978.171753
759.322266	2044.990601
758.131836	2059.304688
756.940430	1937.191528
755.749023	1957.815308
754.557617	1999.411621
753.365234	2020.016113
752.173828	2013.348755
750.981445	2021.361694
749.789062	2050.336182
748.595703	2058.339111
747.403320	2026.520996
746.209961	2103.669678
745.016602	2094.898682
743.823242	1981.405396
742.628906	2050.142822
741.435547	1924.137451
740.241211	2043.099731
739.046875	2021.790039
737.851562	2021.413696
736.657227	2121.461670
735.461914	2031.120239
734.266602	1984.731445
733.070312	1986.453003
731.875000	2071.798340
730.678711	2010.796143
729.482422	2094.015137
728.286133	2022.583984
727.089844	1992.960571
725.892578	2097.022949
724.695312	2084.102539
723.498047	1962.616821
722.300781	2045.751343
721.102539	2089.199463
719.904297	1999.081299
718.706055	2119.716309
717.507812	2027.539673
716.308594	2031.333008
715.110352	2001.762085
713.911133	1999.304321
712.711914	2055.210205
711.511719	2021.483276
710.311523	1973.183350
709.112305	2008.230347
707.912109	2024.518677
706.710938	1974.162476
705.510742	2082.061768
704.309570	1983.834839
703.108398	2120.829834
701.907227	2024.713013
700.705078	2049.301514
699.502930	2017.717529
698.301758	2115.088623
697.098633	2006.568237
695.896484	2087.273438
694.693359	1999.584106
693.491211	2078.181885
692.287109	2007.149292
691.083984	2031.703613
689.880859	2074.941895
688.676758	2022.639038
687.472656	1978.660400
686.268555	2036.415161
685.063477	2108.676514
683.858398	2031.504883
682.654297	2080.918457
681.448242	2105.421631
680.243164	2055.254395
679.037109	2050.723633
677.832031	2106.315674
676.625977	2068.612793
675.418945	1970.825073
674.212891	2148.647705
673.005859	2011.520996
671.798828	2116.777100
670.591797	2054.257080
669.383789	2115.986328
668.176758	2041.069336
666.968750	2113.126221
665.760742	2056.861084
664.551758	2091.647949
663.343750	2070.572021
662.134766	2051.572021
660.925781	2053.256348
659.715820	2110.758301
658.506836	2069.024658
657.296875	2031.439697
656.086914	2140.567871
654.876953	2169.088867
653.666016	2069.543457
652.456055	2081.546631
651.245117	2027.476929
650.034180	2068.382812
648.822266	2055.613037
647.611328	2028.403198
646.399414	2116.737061
645.187500	1984.327637
643.974609	2004.579834
642.762695	2096.992188
641.549805	2036.814819
640.336914	2048.800781
639.124023	2077.268311
637.910156	2050.094482
636.696289	2041.470947
635.483398	2028.731201
634.268555	2057.180908
633.054688	2044.442749
631.839844	2079.054199
630.625000	2097.187744
629.410156	2074.160400
628.195312	2088.173340
626.979492	2001.391479
625.764648	2009.243042
624.548828	2019.147583
623.332031	2029.048340
622.116211	1960.840576
620.899414	2015.958496
619.682617	2077.219482
618.465820	2004.932251
617.248047	2031.256836
616.031250	2041.143677
614.813477	2071.557373
613.595703	2099.907227
612.376953	2019.473633
611.159180	2056.029785
609.940430	2053.593018
608.721680	2024.492065
607.502930	2116.397461
606.283203	2031.934937
605.063477	1968.003906
603.843750	2010.677124
602.624023	2051.284912
601.403320	2108.268311
600.183594	2019.788818
598.962891	2046.035278
597.742188	2076.367188
596.520508	2084.166992
595.299805	2057.166260
594.078125	2093.618164
592.856445	1999.102051
591.633789	2045.780029
590.412109	2102.667480
589.189453	2124.768066
587.966797	2018.048828
586.743164	2074.909180
585.520508	2088.826904
584.296875	2115.000244
583.073242	2020.620850
581.849609	2095.822021
580.625000	2081.132568
579.401367	2043.986816
578.176758	2033.395386
576.952148	2067.713867
575.726562	2118.345459
574.500977	2075.099121
573.276367	2097.149902
572.049805	2102.875244
570.824219	2137.147705
569.598633	2081.696777
568.372070	2140.422119
567.145508	2117.601074
565.917969	2096.825928
564.691406	2149.403076
563.463867	2020.670532
562.236328	2105.827637
561.008789	2135.974854
559.780273	2078.570801
558.552734	2129.066162
557.324219	2124.595947
556.094727	2116.058105
554.866211	2079.043213
553.636719	2113.228760
552.407227	2116.898682
551.177734	2130.732910
549.948242	2036.825439
548.717773	2079.122314
547.488281	2078.731689
546.256836	2039.740112
545.026367	2092.168701
543.795898	1988.201904
542.564453	2087.321045
541.333008	2101.138916
540.100586	2082.476562
538.869141	2106.436768
537.636719	2043.143311
536.404297	2103.615723
535.171875	2003.839355
533.939453	2086.602051
532.706055	1999.030640
531.472656	2043.249268
530.239258	1990.171875
529.004883	2101.242188
527.771484	2056.277100
526.537109	2066.017822
525.302734	2049.427979
524.067383	2028.794678
522.833008	2066.875732
521.597656	2066.486572
520.362305	1970.988281
519.126953	2025.244141
517.890625	2032.954224
516.654297	2075.042969
515.417969	2060.497803
514.181641	1975.198364
512.944336	2065.785645
511.708008	2073.480225
510.470703	2014.493652
509.233398	1979.771118
507.995117	2039.992065
506.756836	2025.471802
505.518555	2037.204346
504.280273	2089.305420
503.041992	2131.295410
501.802734	2064.303467
500.563477	2104.264648
499.324219	1992.925781
498.084961	2016.751221
496.844727	2058.714844
495.604492	2011.958984
494.364258	2068.016846
493.124023	2005.154663
491.882812	2000.746948
490.642578	1966.123657
489.401367	2024.161499
488.159180	2076.136230
486.917969	2099.904785
485.675781	1984.770386
484.433594	2101.125244
483.191406	2018.229004
481.948242	2041.989990
480.705078	2061.719238
479.462891	2007.031738
478.218750	1996.599609
476.975586	2014.315552
475.731445	2064.183350
474.487305	2029.631592
473.243164	1968.973877
471.999023	2028.865601
470.753906	2058.608643
469.508789	2072.276123
468.263672	2029.724487
467.018555	2015.290405
465.772461	1974.772339
464.526367	2068.705078
463.280273	2024.179688
462.034180	1973.653809
460.787109	1981.302490
459.540039	2027.043091
458.292969	2048.710938
457.045898	2086.404297
455.797852	2100.037109
454.550781	2097.636963
453.302734	2013.110596
452.053711	2048.779053
450.805664	1998.333496
449.556641	2029.987305
448.307617	1991.573608
447.058594	2061.239258
445.808594	2038.840698
444.559570	1946.434692
443.309570	2028.069580
442.059570	2033.685303
440.808594	2049.295410
439.557617	2004.931274
438.307617	1980.569580
437.055664	2074.109375
435.804688	1993.805176
434.552734	1997.422974
433.300781	2001.039307
432.048828	1958.730713
430.796875	2036.215576
429.543945	2109.679199
428.291016	1925.690796
427.038086	2005.132812
425.785156	2030.685547
424.531250	2034.290039
423.278320	2047.863281
422.023438	2087.348633
420.769531	2015.195923
419.515625	2060.651123
418.260742	2044.320923
417.005859	2059.871094
415.750000	2021.637695
414.495117	2041.168701
413.239258	2008.926147
411.983398	2088.170898
410.727539	2034.038818
409.470703	2037.633301
408.214844	2114.837891
406.958008	2038.850708
405.700195	2084.205811
404.443359	2034.101685
403.185547	2152.995850
401.927734	2114.823242
400.669922	2076.665039
399.411133	2080.245361
398.153320	2169.243164
396.894531	2141.026611
395.635742	2100.906006
394.375977	2146.171143
393.116211	2104.079834
391.857422	2125.511719
390.596680	2206.462158
389.336914	2132.641357
388.076172	2154.055176
386.815430	2153.646729
385.554688	2180.996582
384.293945	2133.006592
383.032227	2178.187500
381.770508	2066.805176
380.508789	2167.455322
379.247070	2111.580566
377.984375	2144.848145
376.721680	2031.575806
375.458984	2080.683350
374.196289	2084.247314
372.932617	2135.304932
371.668945	2049.820312
370.405273	2051.409668
369.141602	2029.264160
367.876953	2102.045166
366.613281	2012.677246
365.347656	2075.550049
364.083008	2047.487305
362.818359	2011.531250
361.552734	1981.515503
360.287109	2024.593994
359.020508	2034.083862
357.754883	1889.561768
356.488281	1978.036865
355.221680	2007.266968
353.955078	2012.805786
352.687500	2018.342285
351.419922	1931.165039
350.152344	1915.020508
348.884766	1997.473877
347.616211	2012.866211
346.348633	1973.061890
345.080078	1986.482056
343.810547	1997.926514
342.541992	1952.237671
341.272461	2018.832764
340.002930	1984.972412
338.733398	1913.716675
337.462891	1907.447510
336.193359	1944.478638
334.922852	1993.302002
333.651367	1971.282227
332.380859	1963.039551
331.109375	1948.900024
329.837891	1932.799683
328.566406	1895.080933
327.293945	1967.443115
326.022461	1967.068970
324.750000	1947.047485
323.477539	2015.429565
322.204102	1944.342773
320.930664	1945.936401
319.657227	2010.353027
318.383789	1998.193237
317.110352	1935.013428
315.835938	1981.735962
314.561523	1963.703125
313.287109	1943.715698
312.011719	1917.852783
310.737305	2007.676270
309.461914	1899.480347
308.185547	1993.192749
306.910156	1955.582764
305.633789	1917.986938
304.357422	1964.631836
303.081055	1952.507446
301.804688	2003.043823
300.527344	1932.187378
299.250000	1980.750977
297.972656	1951.020264
296.694336	1870.431396
295.416992	2028.522827
294.138672	1945.993896
292.860352	1898.693481
291.581055	1958.937622
290.301758	1903.833984
289.022461	1921.059692
287.743164	1963.679565
286.463867	1924.234497
285.183594	1931.680420
283.903320	1923.500977
282.623047	1932.896362
281.342773	1918.863525
280.061523	1904.835938
278.780273	1912.277954
277.499023	1909.962402
276.216797	1940.807129
274.935547	1917.034668
273.653320	1883.522217
272.370117	1918.252930
271.087891	1871.109253
269.804688	1816.188721
268.521484	1868.447144
267.238281	1809.651978
265.955078	1883.314819
264.670898	1867.377808
263.386719	1876.755615
262.102539	1878.343994
260.817383	1959.721558
259.533203	1900.975708
258.248047	1904.503540
256.962891	1898.305054
255.676758	1882.385742
254.390625	1852.862671
253.104492	1924.432129
251.818359	1854.098755
250.532227	1812.938965
249.245117	1888.360229
247.958008	1901.596313
246.670898	1846.856689
245.382812	1877.570190
244.095703	1857.798828
242.807617	1824.448608
241.518555	1806.635254
240.230469	1887.776733
238.941406	1819.523438
237.652344	1852.145874
236.363281	1781.986084
235.074219	1787.461548
233.784180	1884.035400
232.494141	1858.482056
231.204102	1782.561646
229.913086	1834.525269
228.622070	1808.995728
227.331055	1818.332153
226.040039	1837.345337
224.749023	1842.801147
223.457031	1821.159912
222.165039	1795.656982
220.873047	1808.855713
219.580078	1791.101685
218.287109	1800.428345
216.994141	1722.744141
215.701172	1813.271484
214.407227	1782.000488
213.114258	1804.848145
211.820312	1792.910645
210.525391	1771.319458
209.231445	1828.918701
207.936523	1801.536011
206.641602	1806.982788
205.346680	1735.220703
204.050781	1835.238037
202.754883	1807.874756
201.458984	1747.727783
200.163086	1801.396484
198.866211	1789.481567
197.569336	1796.850708
196.272461	1779.158325
194.975586	1800.016968
193.677734	1741.866821
192.379883	1843.636353
191.082031	1729.642944
189.784180	1771.677856
188.485352	1705.875854
187.187500	1740.199097
185.887695	1707.146851
184.588867	1737.607910
183.289062	1796.915649
181.989258	1727.324341
180.689453	1738.532227
179.389648	1780.500244
178.088867	1622.520752
176.788086	1693.325562
175.487305	1737.199585
174.186523	1756.079590
172.884766	1721.165894
171.583008	1682.424316
170.281250	1699.383545
168.979492	1685.618774
167.676758	1712.168091
166.374023	1688.810425
165.071289	1713.430054
163.767578	1768.733887
162.463867	1770.312622
161.160156	1699.020630
159.856445	1715.949951
158.552734	1730.955933
157.248047	1699.959229
155.943359	1726.459229
154.638672	1651.411987
153.333008	1708.557739
152.027344	1761.851318
150.721680	1663.864014
149.416016	1615.686646
148.110352	1684.278687
146.803711	1729.881348
145.497070	1635.801514
144.189453	1668.005859
142.882812	1675.335449
141.575195	1659.716797
140.267578	1668.956665
138.959961	1620.851562
137.651367	1660.671509
136.342773	1612.586304
135.034180	1606.545654
133.725586	1617.696411
132.416016	1596.380615
131.106445	1569.345337
129.796875	1593.858276
128.487305	1559.199951
127.176758	1536.003296
125.866211	1486.107544
124.555664	1443.860352
123.244141	1487.443237
121.933594	1485.250610
120.622070	1404.902710
119.309570	1395.103271
117.998047	1272.882202
116.685547	1179.285278
115.373047	1137.153320
114.060547	1007.434509
112.748047	845.396729
111.434570	711.976501
110.121094	641.416870
108.806641	489.057648
107.493164	393.834442
106.178711	287.234589
104.864258	237.731216
103.549805	142.611282
102.234375	125.473778
100.918945	106.442108
99.603516	55.111195
