#Wave		#Intensity
1998.943359	950.643066
1997.975586	929.976929
1997.007812	906.569458
1996.039062	896.081970
1995.071289	952.728027
1994.102539	838.977356
1993.133789	947.233887
1992.165039	905.779663
1991.196289	890.141052
1990.227539	928.680908
1989.257812	889.830688
1988.288086	938.672180
1987.318359	997.809875
1986.348633	951.234192
1985.378906	853.126343
1984.409180	909.670898
1983.438477	906.935730
1982.467773	906.777588
1981.497070	898.892517
1980.526367	896.160583
1979.555664	924.326233
1978.584961	906.145081
1977.613281	903.413147
1976.641602	903.255554
1975.669922	931.400146
1974.698242	944.100037
1973.726562	877.062500
1972.753906	961.771667
1971.782227	910.181213
1970.809570	948.582642
1969.836914	886.731384
1968.863281	932.832825
1967.890625	924.961975
1966.917969	904.249390
1965.944336	927.207581
1964.970703	891.093811
1963.997070	911.478577
1963.023438	957.527222
1962.048828	908.593689
1961.075195	921.266052
1960.100586	936.499756
1959.125977	900.421936
1958.151367	928.478149
1957.176758	964.217712
1956.201172	925.589905
1955.226562	904.920166
1954.250977	922.703552
1953.275391	943.043335
1952.299805	907.008240
1951.323242	958.084229
1950.347656	986.090881
1949.371094	927.019592
1948.394531	937.099121
1947.417969	962.534729
1946.441406	880.463013
1945.464844	944.285095
1944.487305	951.795898
1943.509766	928.606262
1942.532227	913.097778
1941.554688	961.525940
1940.577148	917.892273
1939.599609	912.619080
1938.621094	915.015503
1937.642578	950.632019
1936.664062	907.030579
1935.685547	901.762878
1934.707031	927.146423
1933.727539	947.413696
1932.749023	916.609314
1931.769531	931.765747
1930.790039	900.974731
1929.810547	939.095581
1928.830078	885.351013
1927.850586	926.012146
1926.870117	941.153442
1925.889648	940.988831
1924.909180	922.976624
1923.928711	940.659668
1922.948242	915.007446
1921.966797	917.395691
1920.985352	873.921326
1920.003906	957.833557
1919.022461	893.991394
1918.041016	944.765686
1917.059570	903.862915
1916.077148	870.611328
1915.094727	903.546570
1914.112305	928.835999
1913.129883	890.508789
1912.147461	928.510864
1911.164062	961.412842
1910.180664	920.556946
1909.197266	968.703857
1908.213867	902.440063
1907.230469	884.490540
1906.247070	919.912415
1905.262695	904.506836
1904.278320	889.106628
1903.294922	924.508972
1902.309570	891.334717
1901.325195	929.263123
1900.340820	908.792175
1899.355469	956.856567
1898.370117	905.936218
1897.384766	905.777527
1896.399414	936.059814
1895.414062	943.504761
1894.427734	943.339478
1893.442383	935.567932
1892.456055	907.519348
1891.469727	935.240112
1890.482422	881.860535
1889.496094	929.845093
1888.508789	891.684265
1887.522461	929.519226
1886.535156	977.470154
1885.547852	931.725281
1884.559570	911.310608
1883.572266	949.115479
1882.583984	867.972107
1881.595703	920.951782
1880.607422	991.620361
1879.619141	940.862488
1878.630859	928.053772
1877.641602	895.022949
1876.653320	932.784058
1875.664062	950.312500
1874.674805	940.037903
1873.684570	917.134155
1872.695312	932.129883
1871.705078	889.030273
1870.715820	964.630676
1869.725586	934.164246
1868.735352	921.378723
1867.744141	979.266418
1866.753906	946.289917
1865.762695	898.186890
1864.771484	908.119568
1863.780273	943.269775
1862.789062	940.582581
1861.797852	889.992981
1860.805664	910.003052
1859.813477	942.607788
1858.821289	934.882629
1857.829102	947.315857
1856.836914	891.731262
1855.844727	916.760437
1854.851562	911.563232
1853.858398	911.403198
1852.865234	886.070740
1851.872070	926.184021
1850.878906	926.021423
1849.884766	943.470276
1848.890625	945.820068
1847.897461	945.653931
1846.903320	867.535400
1845.908203	932.751038
1844.914062	942.642090
1843.918945	934.936707
1842.923828	952.362305
1841.929688	972.294067
1840.933594	931.932129
1839.938477	916.699402
1838.943359	936.626831
1837.947266	938.972900
1836.951172	906.175537
1835.955078	948.681885
1834.958984	951.024475
1833.961914	945.839661
1832.965820	948.181824
1831.968750	955.539124
1830.971680	952.863647
1829.974609	925.118103
1828.977539	879.835693
1827.979492	1004.991699
1826.982422	942.170715
1825.984375	921.962402
1824.986328	891.741638
1823.988281	899.098206
1822.989258	913.964172
1821.991211	938.839172
1820.992188	976.221008
1819.993164	986.060120
1818.994141	938.343933
1817.995117	938.178894
1816.995117	948.019348
1815.996094	922.843262
1814.996094	917.679993
1813.996094	952.519226
1812.996094	984.846619
1811.996094	979.674988
1810.995117	837.074951
1809.994141	914.374695
1808.993164	956.677307
1807.992188	956.508972
1806.991211	941.358765
1805.990234	938.696594
1804.988281	963.492310
1803.986328	965.818359
1802.984375	940.696228
1801.982422	957.994080
1800.980469	1032.655518
1799.977539	957.656799
1798.975586	957.488220
1797.972656	907.459229
1796.969727	914.777222
1795.966797	1004.333252
1794.962891	934.388733
1793.959961	946.680481
1792.956055	914.133057
1791.952148	936.385559
1790.948242	966.099976
1789.943359	846.433350
1788.939453	995.628540
1787.934570	973.055481
1786.929688	950.490295
1785.924805	920.469788
1784.919922	922.794922
1783.915039	942.527405
1782.909180	997.062988
1781.903320	937.223267
1780.897461	1004.168335
1779.891602	924.467346
1778.885742	936.727844
1777.879883	971.342285
1776.873047	909.075745
1775.866211	886.565125
1774.859375	955.931091
1773.852539	983.070068
1772.844727	955.594116
1771.837891	925.646118
1770.830078	952.776001
1769.822266	945.165771
1768.814453	957.400635
1767.806641	917.553833
1766.797852	897.556519
1765.789062	986.642273
1764.781250	974.075439
1763.772461	916.906738
1762.762695	946.477295
1761.753906	995.855347
1760.744141	975.865173
1759.735352	911.307190
1758.725586	916.098328
1757.714844	975.348816
1756.705078	977.651794
1755.695312	900.765686
1754.684570	984.729370
1753.673828	910.342896
1752.663086	949.755371
1751.652344	954.533508
1750.640625	979.089539
1749.629883	971.500671
1748.618164	978.743958
1747.606445	872.312195
1746.594727	956.162109
1745.583008	936.231140
1744.570312	886.669250
1743.557617	977.880310
1742.545898	906.107849
1741.533203	935.570129
1740.519531	950.213440
1739.506836	900.692627
1738.493164	989.353333
1737.479492	929.975891
1736.465820	907.614502
1735.452148	969.101929
1734.438477	954.137878
1733.423828	907.133667
1732.410156	934.083984
1731.395508	916.669800
1730.380859	1037.230713
1729.366211	953.295349
1728.350586	965.441223
1727.334961	948.033691
1726.320312	938.018188
1725.304688	982.160400
1724.288086	937.686646
1723.272461	915.374756
1722.256836	998.861450
1721.240234	993.765259
1720.223633	954.239502
1719.207031	1032.757080
1718.190430	941.609619
1717.172852	970.940063
1716.155273	933.903748
1715.138672	894.423340
1714.121094	982.708984
1713.102539	975.166199
1712.084961	947.978821
1711.066406	964.999451
1710.048828	950.098572
1709.030273	913.111511
1708.011719	986.575012
1706.992188	983.946716
1705.973633	1020.572144
1704.954102	941.899963
1703.934570	1012.853821
1702.915039	912.142761
1701.895508	990.431335
1700.875977	911.819946
1699.855469	1014.587830
1698.834961	945.800964
1697.814453	962.782349
1696.793945	962.611938
1695.773438	982.033264
1694.751953	952.477112
1693.730469	998.822327
1692.709961	959.482910
1691.687500	1032.729858
1690.666016	954.249634
1689.644531	1003.007935
1688.622070	973.479187
1687.599609	963.524841
1686.577148	958.464111
1685.554688	1019.410095
1684.532227	945.903687
1683.508789	987.280151
1682.485352	999.321899
1681.461914	938.072510
1680.438477	1001.410400
1679.415039	964.602539
1678.391602	1030.354858
1677.367188	1010.642944
1676.342773	966.530701
1675.318359	981.001282
1674.293945	990.586914
1673.268555	985.532532
1672.244141	992.674866
1671.218750	980.306091
1670.193359	1009.390015
1669.167969	1040.901367
1668.141602	999.283142
1667.116211	1038.095581
1666.089844	1028.165894
1665.063477	981.699951
1664.037109	983.961487
1663.010742	976.481689
1661.983398	990.916687
1660.957031	998.043701
1659.929688	1046.543213
1658.902344	1060.957886
1657.875000	1012.110596
1656.846680	1004.633545
1655.819336	1023.912109
1654.791016	1040.752197
1653.762695	1035.705078
1652.734375	1040.382935
1651.705078	974.578430
1650.676758	1093.472534
1649.647461	1098.137573
1648.618164	1093.084595
1647.588867	1000.602051
1646.559570	1056.273438
1645.529297	1097.358398
1644.500000	1063.180664
1643.469727	1094.541992
1642.439453	1094.347656
1641.409180	1040.780151
1640.377930	1079.405518
1639.347656	1120.442261
1638.316406	1093.570923
1637.285156	1144.287842
1636.253906	1117.421753
1635.222656	1080.871216
1634.190430	1148.524536
1633.158203	1162.856323
1632.125977	1099.672974
1631.093750	1203.613281
1630.061523	1198.556885
1629.029297	1169.293213
1627.996094	1212.653931
1626.962891	1142.257446
1625.929688	1204.964355
1624.896484	1243.457153
1623.863281	1219.048706
1622.829102	1230.923706
1621.794922	1230.705078
1620.760742	1184.554688
1619.726562	1305.195679
1618.692383	1242.132080
1617.657227	1234.662842
1616.622070	1256.185059
1615.587891	1294.606812
1614.551758	1265.398193
1613.516602	1291.732178
1612.481445	1293.916626
1611.445312	1279.205078
1610.409180	1329.654053
1609.373047	1312.528564
1608.336914	1295.409058
1607.300781	1304.826172
1606.263672	1304.594238
1605.226562	1292.307129
1604.189453	1306.540771
1603.152344	1279.796631
1602.115234	1327.763794
1601.077148	1351.620605
1600.039062	1363.424561
1599.000977	1331.872192
1597.962891	1305.147095
1596.924805	1304.914917
1595.885742	1321.532837
1594.847656	1309.264038
1593.808594	1284.968018
1592.769531	1306.392334
1591.730469	1344.647095
1590.690430	1272.257080
1589.651367	1356.191528
1588.611328	1312.675049
1587.571289	1293.211548
1586.531250	1345.854248
1585.490234	1285.542603
1584.450195	1256.484253
1583.409180	1306.703125
1582.368164	1313.675293
1581.327148	1306.237915
1580.285156	1370.825439
1579.244141	1284.169922
1578.202148	1267.141968
1577.160156	1247.720581
1576.118164	1257.094604
1575.076172	1280.856689
1574.033203	1283.026733
1572.991211	1218.058960
1571.948242	1289.761719
1570.905273	1279.944336
1569.862305	1253.355103
1568.818359	1214.795166
1567.775391	1185.831299
1566.731445	1180.829590
1565.687500	1257.251587
1564.643555	1261.816284
1563.598633	1254.409668
1562.554688	1244.612183
1561.509766	1215.673584
1560.464844	1155.641113
1559.419922	1196.102661
1558.374023	1150.445679
1557.329102	1190.893555
1556.283203	1166.771973
1555.237305	1235.888428
1554.191406	1137.675049
1553.145508	1182.875488
1552.098633	1192.221436
1551.052734	1144.233032
1550.005859	1146.417236
1548.958984	1165.316406
1547.912109	1167.496094
1546.864258	1172.062012
1545.816406	1176.626221
1544.769531	1121.532837
1543.721680	1128.490234
1542.672852	1059.112671
1541.625000	1116.162720
1540.576172	1132.655396
1539.528320	1170.599121
1538.479492	1089.344849
1537.430664	1091.533691
1536.380859	1143.761353
1535.332031	1172.146118
1534.282227	1133.825073
1533.232422	1116.951782
1532.182617	1085.797729
1531.132812	1097.507446
1530.082031	1194.903198
1529.031250	1137.573242
1527.981445	1077.884277
1526.929688	1115.755981
1525.878906	1113.178101
1524.828125	1122.491943
1523.776367	1160.335327
1522.724609	1136.354980
1521.672852	1107.629395
1520.621094	1112.184448
1519.569336	1107.233765
1518.516602	1135.543335
1517.463867	1118.714111
1516.411133	1101.890869
1515.358398	1139.683472
1514.305664	1106.244995
1513.251953	1072.818481
1512.198242	1108.222778
1511.144531	1122.260620
1510.090820	1117.315674
1509.037109	1107.628784
1507.982422	1100.316650
1506.927734	1090.636230
1505.873047	1083.329712
1504.818359	1113.947388
1503.763672	1180.099243
1502.708984	1096.964355
1501.653320	1096.768188
1500.597656	1056.309204
1499.541992	1129.527832
1498.486328	1079.607056
1497.429688	1079.414062
1496.373047	1046.087036
1495.317383	1152.382935
1494.260742	1121.420654
1493.203125	1083.372925
1492.146484	1085.544189
1491.088867	1130.277344
1490.031250	1082.791626
1488.973633	1051.869141
1487.916016	1127.307495
1486.858398	1117.654175
1485.799805	1105.641724
1484.741211	1048.754517
1483.682617	1060.375000
1482.624023	1071.991211
1481.565430	1059.995483
1480.505859	1132.977173
1479.446289	1026.576782
1478.386719	1132.571655
1477.327148	1030.927490
1476.267578	1040.177612
1475.207031	1108.380859
1474.147461	1082.246216
1473.086914	1084.409912
1472.026367	1119.570557
1470.964844	1079.308472
1469.904297	1034.348389
1468.842773	1090.700439
1467.781250	1081.083984
1466.719727	1104.439087
1465.658203	1043.025391
1464.595703	1073.441040
1463.533203	1066.187866
1462.471680	1049.524536
1461.409180	1141.094604
1460.345703	1105.604858
1459.283203	1100.702881
1458.219727	1086.396606
1457.156250	1149.681274
1456.092773	1083.656616
1455.029297	1130.467285
1453.965820	1116.165649
1452.901367	1061.929443
1451.836914	1165.094238
1450.772461	1150.793945
1449.708008	1040.225220
1448.642578	1119.861084
1447.578125	1136.091309
1446.512695	1121.806396
1445.447266	1145.069824
1444.381836	1140.172363
1443.315430	1025.032837
1442.250000	1109.276001
1441.183594	1066.871094
1440.117188	1078.401489
1439.050781	1141.494263
1437.983398	1099.106323
1436.916992	1138.741699
1435.849609	1133.852051
1434.782227	1131.306396
1433.714844	1156.863525
1432.647461	1114.510498
1431.579102	1102.605591
1430.510742	1118.791748
1429.442383	1104.550049
1428.374023	1080.954590
1427.305664	1150.939819
1426.236328	1125.005371
1425.167969	1110.772705
1424.098633	1154.996216
1423.028320	1145.438354
1421.958984	1082.128052
1420.889648	1126.332764
1419.819336	1098.094116
1418.749023	1144.615967
1417.678711	1158.423584
1416.608398	1141.869751
1415.537109	1120.652466
1414.465820	1199.816528
1413.395508	1152.923950
1412.323242	1099.047852
1411.251953	1138.511597
1410.180664	1119.646362
1409.108398	1208.067993
1408.036133	1142.561646
1406.963867	1158.675781
1405.891602	1167.791260
1404.818359	1146.606934
1403.746094	1190.672363
1402.672852	1092.612549
1401.599609	1132.013306
1400.525391	1192.359375
1399.452148	1234.056396
1398.377930	1147.698975
1397.303711	1198.699219
1396.229492	1117.033447
1395.155273	1123.812744
1394.081055	1216.663330
1393.005859	1169.926636
1391.930664	1151.112427
1390.855469	1183.456299
1389.780273	1132.101318
1388.704102	1210.921387
1387.628906	1206.056030
1386.552734	1222.102783
1385.476562	1207.945068
1384.400391	1184.502319
1383.323242	1221.443359
1382.247070	1195.684692
1381.169922	1190.827026
1380.092773	1213.821533
1379.014648	1164.873413
1377.937500	1229.625122
1376.859375	1189.970093
1375.782227	1180.479126
1374.704102	1189.541870
1373.625000	1268.152588
1372.546875	1330.509277
1371.467773	1260.743530
1370.388672	1241.979492
1369.309570	1181.521484
1368.230469	1297.123413
1367.151367	1218.150024
1366.071289	1266.555298
1364.991211	1229.286621
1363.911133	1145.738770
1362.831055	1240.414917
1361.750977	1191.601929
1360.669922	1209.894287
1359.588867	1258.248535
1358.507812	1237.208984
1357.426758	1257.795288
1356.345703	1197.464233
1355.263672	1218.050171
1354.181641	1257.115601
1353.099609	1231.473999
1352.017578	1226.632080
1350.935547	1277.222778
1349.852539	1235.426880
1348.769531	1249.056885
1347.686523	1267.298828
1346.603516	1225.527100
1345.520508	1285.302368
1344.436523	1222.778198
1343.352539	1250.238281
1342.268555	1254.625488
1341.184570	1247.481689
1340.100586	1214.980225
1339.015625	1260.862183
1337.930664	1209.932861
1336.845703	1191.280884
1335.760742	1244.053589
1334.675781	1206.974976
1333.589844	1289.664307
1332.503906	1284.826538
1331.417969	1291.501221
1330.332031	1314.285522
1329.246094	1235.803833
1328.159180	1260.890747
1327.072266	1223.855469
1325.985352	1212.134399
1324.898438	1234.912109
1323.811523	1280.673950
1322.723633	1257.454712
1321.635742	1206.662842
1320.547852	1257.000854
1319.459961	1233.798218
1318.371094	1189.929443
1317.283203	1210.385376
1316.194336	1207.870483
1315.105469	1267.346313
1314.016602	1163.819824
1312.926758	1193.445801
1311.837891	1188.640991
1310.748047	1243.488525
1309.658203	1162.979370
1308.568359	1261.386963
1307.477539	1196.954590
1306.387695	1182.982788
1305.296875	1256.119141
1304.206055	1180.263672
1303.114258	1177.759155
1302.023438	1221.074341
1300.931641	1191.076782
1299.840820	1209.182495
1298.748047	1135.693481
1297.656250	1153.802612
1296.564453	1139.860840
1295.471680	1164.827881
1294.378906	1134.872803
1293.286133	1136.955200
1292.193359	1196.217529
1291.099609	1152.551880
1290.006836	1200.357910
1288.913086	1193.282959
1287.819336	1145.070190
1286.725586	1131.152222
1285.630859	1142.371460
1284.536133	1135.311890
1283.442383	1192.204468
1282.346680	1162.303345
1281.251953	1127.846802
1280.157227	1127.642700
1279.061523	1132.003296
1277.965820	1184.281128
1276.870117	1115.623779
1275.774414	1165.604492
1274.677734	1092.413940
1273.581055	1101.337158
1272.485352	1142.174072
1271.387695	1112.335449
1270.291016	1098.460327
1269.194336	1134.718384
1268.096680	1093.506592
1266.999023	1086.475464
1265.901367	1104.497314
1264.803711	1104.297363
1263.705078	1110.926880
1262.606445	1081.136841
1261.507812	1119.627441
1260.409180	1069.369141
1259.310547	1110.122559
1258.210938	1155.410156
1257.111328	1123.364746
1256.011719	1073.141968
1254.912109	1009.298157
1253.812500	1068.207642
1252.711914	1043.018066
1251.612305	1058.732910
1250.511719	1056.269531
1249.410156	1031.095703
1248.309570	1062.699097
1247.208008	1048.884644
1246.107422	1091.822754
1245.005859	1043.965576
1243.903320	1093.696167
1242.801758	1045.855835
1241.699219	1095.567993
1240.597656	1050.012451
1239.495117	1079.298828
1238.391602	1058.699951
1237.289062	1110.640137
1236.185547	1033.387939
1235.082031	1028.669067
1233.978516	1033.013306
1232.875000	1071.330444
1231.771484	1059.813354
1230.666992	1061.885376
1229.562500	1066.220215
1228.458008	1000.390381
1227.353516	1016.049377
1226.248047	1074.690186
1225.143555	1036.039673
1224.038086	1053.945190
1222.931641	1022.096130
1221.826172	1058.084595
1220.720703	1010.423035
1219.614258	967.298889
1218.507812	994.238953
1217.401367	1014.391541
1216.294922	1027.760376
1215.187500	995.956177
1214.080078	1018.355347
1212.972656	1033.973633
1211.865234	1067.643555
1210.757812	1042.625244
1209.649414	1006.334351
1208.541016	1015.175415
1207.432617	938.302856
1206.324219	1062.164429
1205.215820	1023.641418
1204.106445	1041.489990
1202.997070	1009.746277
1201.887695	987.027954
1200.778320	1025.151001
1199.668945	1063.260254
1198.558594	968.472168
1197.448242	975.051758
1196.337891	992.886169
1195.227539	1037.726440
1194.117188	1008.279785
1193.005859	1019.347656
1191.894531	1048.409912
1190.783203	991.984497
1189.671875	1034.535034
1188.559570	971.386719
1187.447266	950.976624
1186.334961	1029.475464
1185.222656	1038.277710
1184.110352	981.915344
1182.998047	925.573425
1181.884766	907.436096
1180.771484	961.168396
1179.658203	954.257751
1178.543945	981.023071
1177.430664	974.111145
1176.316406	947.004944
1175.202148	940.101685
1174.087891	955.633606
1172.972656	915.088257
1171.858398	979.953003
1170.743164	970.806519
1169.627930	948.213501
1168.512695	965.970886
1167.396484	952.350159
1166.281250	1008.187317
1165.165039	949.763611
1164.048828	1001.101624
1162.931641	933.743591
1161.815430	967.155457
1160.698242	879.682678
1159.581055	883.998474
1158.463867	935.301514
1157.346680	946.317078
1156.228516	917.067017
1155.111328	912.427368
1153.993164	887.666016
1152.875000	887.504333
1151.755859	914.164185
1150.637695	900.589417
1149.518555	918.299866
1148.399414	898.027527
1147.280273	893.396973
1146.160156	904.399658
1145.041016	968.982605
1143.920898	924.160645
1142.800781	930.687866
1141.680664	926.055420
1140.559570	923.655640
1139.439453	941.332520
1138.318359	941.160950
1137.197266	943.219299
1136.075195	916.294250
1134.954102	862.630798
1133.832031	913.731689
1132.709961	882.370239
1131.587891	868.842590
1130.465820	928.823853
1129.342773	899.703674
1128.220703	883.953552
1127.097656	832.590271
1125.974609	874.728149
1124.850586	919.075928
1123.727539	872.184143
1122.603516	863.126892
1121.479492	885.210938
1120.355469	871.707031
1119.230469	842.644653
1118.106445	940.299927
1116.981445	869.007568
1115.856445	906.625061
1114.730469	917.568237
1113.605469	877.417236
1112.479492	910.570679
1111.353516	832.687073
1110.227539	872.496765
1109.101562	843.481628
1107.974609	876.616882
1106.848633	867.581360
1105.721680	889.607727
1104.594727	907.189880
1103.466797	858.235718
1102.339844	926.814026
1101.211914	862.356018
1100.083984	857.765686
1098.956055	910.794128
1097.827148	866.315002
1096.699219	930.398621
1095.570312	832.776184
1094.441406	881.341431
1093.311523	881.180420
1092.182617	876.592224
1091.052734	816.675354
1089.922852	898.400085
1088.792969	878.324280
1087.663086	882.587830
1086.532227	831.559875
1085.402344	915.433167
1084.271484	882.104065
1083.139648	866.470215
1082.008789	870.731812
1080.876953	848.476868
1079.746094	837.275940
1078.614258	887.924561
1077.481445	852.428406
1076.349609	856.688477
1075.216797	865.362061
1074.083984	840.925171
1072.951172	858.425415
1071.818359	818.554199
1070.685547	869.141174
1069.551758	813.843750
1068.417969	862.207886
1067.284180	879.688049
1066.149414	872.914124
1065.015625	795.617065
1063.880859	872.594788
1062.746094	879.044556
1061.611328	894.302734
1060.476562	841.283569
1059.340820	852.139160
1058.205078	836.572693
1057.069336	878.240540
1055.933594	869.277039
1054.796875	904.322693
1053.661133	857.959351
1052.524414	879.797241
1051.387695	877.437134
1050.250000	831.104004
1049.113281	859.529602
1047.975586	857.174316
1046.837891	837.240051
1045.700195	856.860413
1044.561523	814.966675
1043.423828	775.284485
1042.285156	832.235168
1041.146484	882.578552
1040.007812	851.685913
1038.868164	844.945923
1037.728516	803.100159
1036.589844	835.860901
1035.449219	842.288147
1034.309570	839.940796
1033.169922	822.245605
1032.029297	826.479431
1030.888672	780.299133
1029.748047	872.197021
1028.606445	843.553528
1027.465820	860.924072
1026.324219	856.385803
1025.182617	803.672546
1024.041016	869.208496
1022.898438	851.536804
1021.756836	860.135254
1020.614258	807.459839
1019.471680	833.565796
1018.328125	796.226501
1017.185547	831.073059
1016.041992	806.867676
1014.898438	841.699402
1013.754883	904.934143
1012.610352	841.390625
1011.466797	847.791382
1010.322266	847.635864
1009.177734	825.638062
1008.033203	816.751282
1006.887695	810.051147
1005.742188	849.196960
1004.597656	838.127991
1003.451172	831.427490
1002.305664	835.638550
1001.160156	822.396606
1000.013672	822.245667
998.867188	850.442810
997.720703	837.205383
996.573242	815.253418
995.426758	815.103760
994.279297	841.102356
993.131836	849.662415
991.983398	812.476624
990.835938	825.394348
989.687500	807.823364
988.539062	759.780518
987.390625	844.529236
986.242188	816.083191
985.092773	852.922241
983.944336	800.555420
982.794922	817.808533
981.644531	837.229858
980.495117	800.114258
979.344727	799.967224
978.194336	801.993652
977.043945	856.171875
975.893555	803.871521
974.742188	808.068176
973.591797	799.232361
972.440430	829.485413
971.289062	751.175903
970.136719	879.104919
968.985352	826.857788
967.833008	824.535950
966.680664	820.045471
965.528320	809.049500
964.375000	754.684814
963.221680	841.275452
962.069336	817.274536
960.915039	838.798584
959.761719	858.147644
958.608398	788.657288
957.454102	803.675903
956.299805	864.171631
955.145508	822.869202
953.990234	891.999268
952.834961	790.096680
951.680664	826.743530
950.525391	835.246765
949.369141	768.026001
948.213867	802.493530
947.057617	787.207214
945.901367	756.790649
944.745117	812.859741
943.588867	797.579834
942.431641	793.110840
941.274414	808.089478
940.117188	818.742065
938.959961	790.512939
937.801758	796.845764
936.644531	803.176270
935.486328	820.297729
934.328125	781.297607
933.168945	802.732544
932.010742	776.694824
930.851562	806.750977
929.692383	854.049500
928.533203	840.954407
927.373047	784.746155
926.213867	812.623047
925.053711	790.922241
923.893555	760.610657
922.732422	816.482422
921.572266	850.794495
920.411133	775.264709
919.250000	859.093323
918.088867	781.437073
916.926758	779.140686
915.765625	822.035522
914.603516	847.702332
913.441406	845.394897
912.279297	875.349243
911.116211	812.828003
909.953125	836.327454
908.790039	767.387756
907.626953	825.273254
906.463867	827.269775
905.299805	797.040161
904.135742	826.964539
902.971680	805.336365
901.807617	858.866943
900.643555	830.800415
899.478516	832.793518
898.313477	776.844360
897.148438	813.175903
895.982422	759.396118
894.817383	815.020508
893.651367	804.148132
892.485352	844.735657
891.319336	797.420410
890.152344	812.275635
888.986328	792.840393
887.819336	809.833313
886.652344	839.672058
885.484375	820.242371
884.317383	815.808411
883.149414	845.629456
881.981445	830.490173
880.813477	744.735046
879.644531	774.552551
878.475586	723.067383
877.307617	838.432129
876.137695	831.861816
874.968750	763.289978
873.798828	825.141418
872.629883	790.792480
871.459961	797.057007
870.289062	777.681274
869.119141	766.857117
867.948242	770.986755
866.777344	794.332581
865.606445	836.883850
864.435547	783.366333
863.263672	825.903870
862.092773	825.751160
860.920898	814.931824
859.748047	810.515259
858.576172	767.714539
857.403320	776.101135
856.230469	773.825867
855.057617	752.369141
853.884766	811.896973
852.710938	769.135376
851.538086	777.513794
850.364258	775.240173
849.189453	815.555054
848.015625	730.244446
846.840820	791.838684
845.666016	729.974243
844.491211	800.056885
843.316406	793.526550
842.140625	808.268860
840.965820	848.525208
839.790039	818.600830
838.613281	858.840271
837.437500	841.677673
836.260742	786.270386
835.083984	807.371460
833.907227	798.724854
832.730469	851.673828
831.552734	817.540405
830.375977	876.835449
829.198242	849.078003
828.019531	806.474731
826.841797	787.228149
825.663086	804.054443
824.484375	763.604126
823.305664	803.756531
822.126953	788.765259
820.947266	790.739014
819.767578	799.070679
818.587891	864.616516
817.408203	809.368347
816.228516	840.993958
815.047852	821.776245
813.867188	827.976685
812.686523	808.768433
811.504883	821.319275
810.324219	814.817810
809.142578	774.462402
807.960938	827.209412
806.779297	827.056030
805.596680	829.017456
804.415039	811.948120
803.232422	816.025635
802.048828	782.055664
800.866211	775.570801
799.682617	828.248901
798.500000	885.132446
797.315430	811.044861
796.131836	829.899719
794.948242	833.968323
793.763672	772.596924
792.579102	795.669312
791.394531	787.081116
790.208984	795.374023
789.024414	799.445068
787.838867	843.584900
786.653320	826.559753
785.466797	780.026367
784.281250	809.390564
783.094727	819.777283
781.908203	800.661987
780.721680	808.939758
779.534180	804.577087
778.347656	873.920105
777.160156	785.329346
775.972656	776.763245
774.784180	850.282043
773.596680	793.308838
772.408203	793.161438
771.219727	832.980347
770.031250	799.176025
768.841797	820.054626
767.653320	807.288330
766.463867	834.463318
765.274414	777.566895
764.083984	855.164612
762.894531	770.975586
761.704102	835.943481
760.513672	863.087708
759.322266	827.234375
758.131836	810.287048
756.940430	753.468811
755.749023	803.690552
754.557617	847.599487
753.365234	824.367981
752.173828	759.200256
750.981445	830.351929
749.789062	876.319519
748.595703	777.641357
747.403320	834.080017
746.209961	792.019043
745.016602	835.864563
743.823242	821.047485
742.628906	799.953552
741.435547	850.054199
740.241211	833.149292
739.046875	849.737854
737.851562	807.728455
736.657227	824.315491
735.461914	830.437439
734.266602	807.277527
733.070312	838.492249
731.875000	779.799011
730.678711	771.292908
729.482422	819.215515
728.286133	839.957397
727.089844	756.238708
725.892578	829.201294
724.695312	793.546082
723.498047	820.540833
722.300781	849.613037
721.102539	780.580078
719.904297	759.567383
718.706055	811.584290
717.507812	830.206604
716.308594	844.650818
715.110352	834.067566
713.911133	800.555664
712.711914	833.756714
711.511719	794.005249
710.311523	775.104736
709.112305	841.623535
707.912109	826.886780
706.710938	795.495850
705.510742	822.414368
704.309570	836.832764
703.108398	832.514160
701.907227	809.469055
700.705078	836.364685
699.502930	840.368958
698.301758	790.298645
697.098633	823.420776
695.896484	854.451538
694.693359	781.542236
693.491211	841.663696
692.287109	824.884338
691.083984	853.814087
689.880859	834.961609
688.676758	826.499329
687.472656	778.591431
686.268555	842.797729
685.063477	834.338562
683.858398	776.080505
682.654297	854.774048
681.448242	771.642212
680.243164	781.867737
679.037109	821.118896
677.832031	787.795288
676.625977	804.230225
675.418945	799.935303
674.212891	857.801514
673.005859	832.782166
671.798828	772.561523
670.591797	776.558838
669.383789	797.118164
668.176758	842.510376
666.968750	848.561951
665.760742	835.987793
664.551758	813.073792
663.343750	800.510864
662.134766	852.064209
660.925781	847.769531
659.715820	857.947815
658.506836	799.912659
657.296875	832.828247
656.086914	859.533020
654.876953	826.319519
653.666016	805.510925
652.456055	784.710083
651.245117	770.110901
650.034180	819.508972
648.822266	790.461609
647.611328	815.075562
646.399414	796.355286
645.187500	820.958862
643.974609	816.680664
642.762695	824.775635
641.549805	787.513428
640.336914	820.344788
639.124023	770.732544
637.910156	778.829895
636.696289	807.524353
635.483398	774.419189
634.268555	801.044434
633.054688	794.717957
631.839844	835.738586
630.625000	860.279175
629.410156	738.713928
628.195312	808.524292
626.979492	796.031372
625.764648	832.900085
624.548828	789.564819
623.332031	861.369080
622.116211	813.933838
620.899414	799.396362
619.682617	799.246704
618.465820	825.802002
617.248047	829.755066
616.031250	804.958069
614.813477	845.868835
613.595703	800.551086
612.376953	829.133484
611.159180	828.978088
609.940430	814.461975
608.721680	810.207092
607.502930	805.953674
606.283203	795.550720
605.063477	783.101562
603.843750	836.244934
602.624023	817.645020
601.403320	805.198669
600.183594	802.999207
598.962891	837.666077
597.742188	778.125732
596.520508	775.932556
595.299805	835.148071
594.078125	802.246643
592.856445	757.080627
591.633789	810.128906
590.412109	795.659180
589.189453	803.689941
587.966797	799.449951
586.743164	811.565430
585.520508	817.544739
584.296875	872.565247
583.073242	794.763916
581.849609	839.554443
580.625000	847.566223
579.401367	814.736023
578.176758	781.918091
576.952148	783.812500
575.726562	810.195740
574.500977	840.649841
573.276367	807.851562
572.049805	793.422363
570.824219	842.215698
569.598633	837.979797
568.372070	770.552002
567.145508	821.360168
565.917969	835.470032
564.691406	792.528748
563.463867	816.823486
562.236328	806.487122
561.008789	802.263245
559.780273	796.005066
558.552734	816.209839
557.324219	814.021423
556.094727	777.244385
554.866211	819.818420
553.636719	874.579773
552.407227	815.443237
551.177734	823.422546
549.948242	819.202209
548.717773	812.951111
547.488281	839.214233
546.256836	814.677063
545.026367	786.086670
543.795898	779.846313
542.564453	834.522278
541.333008	814.064514
540.100586	781.436096
538.869141	783.318481
537.636719	805.489502
536.404297	787.080933
535.171875	847.778198
533.939453	855.729919
532.706055	760.280396
531.472656	784.461731
530.239258	794.447388
529.004883	788.219116
527.771484	798.200195
526.537109	814.254028
525.302734	810.050537
524.067383	811.922791
522.833008	789.501953
521.597656	724.585876
520.362305	870.148804
519.126953	797.149048
517.890625	809.135986
516.654297	768.534424
515.417969	780.522217
514.181641	824.852539
512.944336	798.420044
511.708008	767.955627
510.470703	800.139893
509.233398	749.484802
507.995117	765.501953
506.756836	807.765442
505.518555	797.518066
504.280273	839.759521
503.041992	764.925171
501.802734	855.586182
500.563477	788.847046
499.324219	843.160889
498.084961	778.465942
496.844727	764.204590
495.604492	796.316406
494.364258	840.509705
493.124023	798.031433
491.882812	775.717590
490.642578	829.962036
489.401367	773.410950
488.159180	777.292542
486.917969	801.305908
485.675781	821.284302
484.433594	843.267700
483.191406	808.901367
481.948242	732.299866
480.705078	802.561890
479.462891	828.554138
478.218750	776.120300
476.975586	804.117981
475.731445	814.015808
474.487305	795.776367
473.243164	765.488831
471.999023	879.844666
470.753906	793.317444
469.508789	779.111572
468.263672	784.987427
467.018555	796.882751
465.772461	762.615295
464.526367	814.640381
463.280273	802.449829
462.034180	756.166138
460.787109	792.119934
459.540039	834.075073
458.292969	769.770020
457.045898	825.743103
455.797852	815.567871
454.550781	857.486694
453.302734	795.228760
452.053711	821.113831
450.805664	794.928284
449.556641	798.781982
448.307617	792.626282
447.058594	798.480103
445.808594	762.314331
444.559570	824.184082
443.309570	800.027466
442.059570	831.871277
440.808594	817.718811
439.557617	831.556763
438.307617	819.408203
437.055664	821.251404
435.804688	807.111511
434.552734	856.894470
433.300781	786.835815
432.048828	758.733643
430.796875	806.501038
429.543945	786.389404
428.291016	778.258484
427.038086	742.198425
425.785156	801.901367
424.531250	761.861572
423.278320	765.705444
422.023438	779.516113
420.769531	757.442566
419.515625	783.206848
418.260742	795.013672
417.005859	762.989014
415.750000	828.572693
414.495117	788.588135
413.239258	798.393860
411.983398	776.345764
410.727539	810.033020
409.470703	825.798645
408.214844	775.904785
406.958008	799.627319
405.700195	749.757202
404.443359	817.219727
403.185547	773.329102
401.927734	751.318848
400.669922	802.844727
399.411133	808.653198
398.153320	818.432373
396.894531	828.207825
395.635742	802.236389
394.375977	800.098938
393.116211	815.827148
391.857422	809.718689
390.596680	775.833374
389.336914	813.379456
388.076172	755.704468
386.815430	787.290771
385.554688	781.193359
384.293945	792.939270
383.032227	774.951172
381.770508	826.325684
380.508789	816.262878
379.247070	726.970032
377.984375	808.031372
376.721680	809.858215
375.458984	801.785706
374.196289	817.468323
372.932617	795.544556
371.668945	807.265198
370.405273	747.765503
369.141602	787.180420
367.876953	806.805664
366.613281	788.858765
365.347656	788.708984
364.083008	752.985168
362.818359	784.457703
361.552734	800.113464
360.287109	748.606018
359.020508	785.985779
357.754883	827.300293
356.488281	801.480042
355.221680	761.853516
353.955078	722.242065
352.687500	791.158630
351.419922	775.227661
350.152344	790.858093
348.884766	751.271057
347.616211	808.300781
346.348633	737.187988
345.080078	792.227966
343.810547	740.848511
342.541992	750.557556
341.272461	752.384521
340.002930	819.194946
338.733398	811.163879
337.462891	753.924011
336.193359	783.302124
334.922852	796.927307
333.651367	773.167603
332.380859	804.492188
331.109375	737.474792
329.837891	788.456421
328.566406	756.852844
327.293945	758.674377
326.022461	732.983704
324.750000	744.632690
323.477539	771.992004
322.204102	714.889648
320.930664	752.062195
319.657227	781.367676
318.383789	724.295959
317.110352	743.783020
315.835938	790.732239
314.561523	829.816589
313.287109	737.474365
312.011719	760.865906
310.737305	748.957336
309.461914	742.934021
308.185547	766.311096
306.910156	762.246155
305.633789	789.528870
304.357422	714.945801
303.081055	746.143738
301.804688	751.875671
300.527344	745.859558
299.250000	796.606384
297.972656	724.049683
296.694336	719.998718
295.416992	729.642273
294.138672	772.530273
292.860352	760.650635
291.581055	756.595642
290.301758	764.270081
289.022461	766.078735
287.743164	726.854492
286.463867	746.251343
285.183594	761.734436
283.903320	771.353210
282.623047	724.348022
281.342773	732.018127
280.061523	741.636963
278.780273	735.641602
277.499023	712.090149
276.216797	760.718384
274.935547	785.925720
273.653320	729.231140
272.370117	736.889832
271.087891	769.883484
269.804688	756.095764
268.521484	713.088257
267.238281	740.223633
265.955078	708.921021
264.670898	716.574585
263.386719	735.906250
262.102539	698.782898
260.817383	720.056580
259.533203	675.167419
258.248047	723.672424
256.962891	704.084473
255.676758	719.506958
254.390625	717.425354
253.104492	713.400635
251.818359	703.546875
250.532227	720.900696
249.245117	742.133362
247.958008	691.489563
246.670898	704.951599
245.382812	737.824890
244.095703	708.564880
242.807617	698.724976
241.518555	725.758911
240.230469	774.124268
238.941406	715.782654
237.652344	736.979492
236.363281	668.971924
235.074219	750.268616
233.784180	690.037659
232.494141	726.726562
231.204102	730.462769
229.913086	763.255493
228.622070	720.499390
227.331055	706.806458
226.040039	712.479553
224.749023	656.207520
223.457031	679.306213
222.165039	735.290588
220.873047	673.242554
219.580078	704.061584
218.287109	725.199402
216.994141	696.058228
215.701172	680.460083
214.407227	720.917725
213.114258	714.982666
211.820312	707.117798
210.525391	691.529297
209.231445	728.091187
207.936523	675.817383
206.641602	694.993408
205.346680	644.676025
204.050781	667.710144
202.754883	663.723511
201.458984	704.106628
200.163086	688.542297
198.866211	711.550354
197.569336	684.422729
196.272461	686.219238
194.975586	676.451782
193.677734	736.054382
192.379883	687.751526
191.082031	656.802063
189.784180	689.413757
188.485352	725.863647
187.187500	716.099609
185.887695	714.037781
184.588867	629.233459
183.289062	646.427856
181.989258	679.003906
180.689453	676.950623
179.389648	680.666443
178.088867	709.372192
176.788086	663.107056
175.487305	645.684753
174.186523	639.797058
172.884766	649.279114
171.583008	691.407227
170.281250	691.274658
168.979492	652.745300
167.676758	721.721069
166.374023	706.229797
165.071289	679.232056
163.767578	644.571167
162.463867	675.135498
161.160156	671.170654
159.856445	657.621033
158.552734	644.076599
157.248047	653.535645
155.943359	668.739502
154.638672	693.516418
153.333008	653.159424
152.027344	662.609314
150.721680	706.519958
149.416016	656.612000
148.110352	631.604492
146.803711	681.236450
145.497070	654.320618
144.189453	615.937927
142.882812	698.056458
141.575195	627.174072
140.267578	632.788879
138.959961	649.869751
137.651367	645.922852
136.342773	697.386292
135.034180	653.315857
133.725586	622.631714
132.416016	649.245728
131.106445	647.211731
129.796875	635.634521
128.487305	635.512329
127.176758	635.390198
125.866211	612.375488
124.555664	553.130127
123.244141	558.744690
121.933594	585.329834
120.622070	568.061096
119.309570	518.398987
117.998047	514.488281
116.685547	485.812164
115.373047	449.527924
114.060547	375.169373
112.748047	310.359619
111.434570	256.996857
110.121094	213.171188
108.806641	196.003647
107.493164	154.109131
106.178711	135.057327
104.864258	64.662895
103.549805	76.059349
102.234375	49.429062
100.918945	66.526314
99.603516	3.800772
