#Wave		#Intensity
1998.943359	20888.314453
1997.975586	20777.234375
1997.007812	20923.416016
1996.039062	20749.333984
1995.071289	20892.886719
1994.102539	20620.771484
1993.133789	20823.660156
1992.165039	20758.095703
1991.196289	20635.791016
1990.227539	20498.050781
1989.257812	20528.007812
1988.288086	20733.308594
1987.318359	20734.849609
1986.348633	20728.656250
1985.378906	20678.648438
1984.409180	20311.689453
1983.438477	20619.906250
1982.467773	20490.082031
1981.497070	20571.503906
1980.526367	20848.609375
1979.555664	20623.546875
1978.584961	20792.425781
1977.613281	20719.304688
1976.641602	20484.085938
1975.669922	20706.929688
1974.698242	20623.570312
1973.726562	20591.679688
1972.753906	20454.363281
1971.782227	20731.046875
1970.809570	20249.283203
1969.836914	20456.507812
1968.863281	20522.322266
1967.890625	20657.484375
1966.917969	20589.656250
1965.944336	20593.767578
1964.970703	20184.429688
1963.997070	20771.441406
1963.023438	20547.044922
1962.048828	20607.623047
1961.075195	20591.195312
1960.100586	20307.931641
1959.125977	20435.216797
1958.151367	20593.234375
1957.176758	20512.705078
1956.201172	20321.955078
1955.226562	20279.953125
1954.250977	20207.207031
1953.275391	20075.546875
1952.299805	20261.640625
1951.323242	19981.435547
1950.347656	20211.021484
1949.371094	20192.125000
1948.394531	20037.535156
1947.417969	20223.468750
1946.441406	20155.949219
1945.464844	20329.000000
1944.487305	20258.923828
1943.509766	20357.708984
1942.532227	20118.843750
1941.554688	20099.984375
1940.577148	20055.562500
1939.599609	20161.980469
1938.621094	20112.449219
1937.642578	19968.382812
1936.664062	20406.910156
1935.685547	20150.439453
1934.707031	20024.318359
1933.727539	19954.421875
1932.749023	20134.765625
1931.769531	20131.246094
1930.790039	20069.021484
1929.810547	20126.757812
1928.830078	19791.548828
1927.850586	20010.025391
1926.870117	19958.064453
1925.889648	20079.529297
1924.909180	19800.654297
1923.928711	20067.406250
1922.948242	20012.919922
1921.966797	19655.203125
1920.985352	19804.636719
1920.003906	19780.791016
1919.022461	19973.449219
1918.041016	19944.488281
1917.059570	19615.097656
1916.077148	19912.052734
1915.094727	19669.318359
1914.112305	19673.509766
1913.129883	19843.080078
1912.147461	19595.394531
1911.164062	19772.548828
1910.180664	19743.658203
1909.197266	19747.828125
1908.213867	19746.914062
1907.230469	19720.582031
1906.247070	19668.845703
1905.262695	19543.445312
1904.278320	19710.224609
1903.294922	19468.025391
1902.309570	19528.101562
1901.325195	19641.474609
1900.340820	19752.267578
1899.355469	19454.390625
1898.370117	19735.199219
1897.384766	19516.080078
1896.399414	19423.875000
1895.414062	19433.154297
1894.427734	19571.757812
1893.442383	19766.091797
1892.456055	19699.253906
1891.469727	19571.611328
1890.482422	19398.398438
1889.496094	19534.347656
1888.508789	19216.808594
1887.522461	19654.138672
1886.535156	19260.720703
1885.547852	19211.769531
1884.559570	19466.607422
1883.572266	19367.017578
1882.583984	19292.767578
1881.595703	19289.386719
1880.607422	19592.091797
1879.619141	19376.203125
1878.630859	19380.392578
1877.641602	19212.654297
1876.653320	19355.902344
1875.664062	19403.056641
1874.674805	19293.519531
1873.684570	19103.171875
1872.695312	19365.062500
1871.705078	19066.164062
1870.715820	19052.718750
1869.725586	19162.990234
1868.735352	18987.974609
1867.744141	19567.660156
1866.753906	18930.843750
1865.762695	19298.404297
1864.771484	18969.607422
1863.780273	19152.916016
1862.789062	19005.820312
1861.797852	19294.947266
1860.805664	18946.212891
1859.813477	19227.687500
1858.821289	19161.314453
1857.829102	19016.861328
1856.836914	18945.509766
1855.844727	19010.185547
1854.851562	19147.865234
1853.858398	18872.591797
1852.865234	19000.175781
1851.872070	18876.033203
1850.878906	18681.474609
1849.884766	18924.755859
1848.890625	19283.660156
1847.897461	18970.925781
1846.903320	18819.232422
1845.908203	18929.064453
1844.914062	19023.773438
1843.918945	19058.130859
1842.923828	18768.322266
1841.929688	18820.296875
1840.933594	18796.894531
1839.938477	19029.673828
1838.943359	18747.603516
1837.947266	18744.308594
1836.951172	18921.748047
1835.955078	18835.601562
1834.958984	18744.466797
1833.961914	18733.646484
1832.965820	18818.148438
1831.968750	18649.314453
1830.971680	18613.439453
1829.974609	18913.525391
1828.977539	18641.988281
1827.979492	18683.824219
1826.982422	18750.701172
1825.984375	18574.537109
1824.986328	18764.146484
1823.988281	18675.697266
1822.989258	18682.429688
1821.991211	18824.351562
1820.992188	18831.052734
1819.993164	18820.232422
1818.994141	18666.789062
1817.995117	18733.556641
1816.995117	18457.611328
1815.996094	18769.482422
1814.996094	18603.648438
1813.996094	18555.375000
1812.996094	18507.117188
1811.996094	18843.748047
1810.995117	18725.492188
1809.994141	18644.750000
1808.993164	18541.554688
1807.992188	18430.904297
1806.991211	18522.544922
1805.990234	18719.007812
1804.988281	18578.427734
1803.986328	18310.619141
1802.984375	18337.337891
1801.982422	18291.699219
1800.980469	18507.980469
1799.977539	18454.845703
1798.975586	18224.691406
1797.972656	18398.486328
1796.969727	18350.380859
1795.966797	18369.580078
1794.962891	18094.748047
1793.959961	18218.617188
1792.956055	18120.757812
1791.952148	18154.921875
1790.948242	18126.824219
1789.943359	18275.492188
1788.939453	18093.060547
1787.934570	18035.123047
1786.929688	18285.742188
1785.924805	18043.695312
1784.919922	18043.003906
1783.915039	18181.576172
1782.909180	18292.750000
1781.903320	18013.580078
1780.897461	18258.962891
1779.891602	18059.419922
1778.885742	17882.308594
1777.879883	18010.822266
1776.873047	18002.679688
1775.866211	18093.875000
1774.859375	17867.220703
1773.852539	18062.671875
1772.844727	17746.748047
1771.837891	17701.431641
1770.830078	18105.224609
1769.822266	18049.937500
1768.814453	17729.273438
1767.806641	17738.546875
1766.797852	17718.062500
1765.789062	17831.451172
1764.781250	17924.970703
1763.772461	17612.042969
1762.762695	17660.968750
1761.753906	17548.853516
1760.744141	17637.400391
1759.735352	17837.351562
1758.725586	17866.392578
1757.714844	17689.955078
1756.705078	17602.681641
1755.695312	17569.880859
1754.684570	17935.435547
1753.673828	17605.734375
1752.663086	17548.214844
1751.652344	17686.072266
1750.640625	17537.076172
1749.629883	17568.587891
1748.618164	17543.244141
1747.606445	17451.185547
1746.594727	17544.462891
1745.583008	17684.640625
1744.570312	17343.152344
1743.557617	17320.333984
1742.545898	17571.580078
1741.533203	17282.126953
1740.519531	17496.267578
1739.506836	17495.646484
1738.493164	17571.507812
1737.479492	17568.404297
1736.465820	17397.589844
1735.452148	17197.244141
1734.438477	17384.046875
1733.423828	17388.371094
1732.410156	17087.083984
1731.395508	17328.017578
1730.380859	17411.185547
1729.366211	17368.697266
1728.350586	17279.427734
1727.334961	17500.455078
1726.320312	17256.087891
1725.304688	17233.345703
1724.288086	17028.488281
1723.272461	17264.164062
1722.256836	17211.908203
1721.240234	17125.232422
1720.223633	17311.578125
1719.207031	17333.107422
1718.190430	17113.693359
1717.172852	17231.113281
1716.155273	17191.203125
1715.138672	17281.537109
1714.121094	17118.791016
1713.102539	17209.103516
1712.084961	17122.560547
1711.066406	17148.998047
1710.048828	17047.763672
1709.030273	17199.388672
1708.011719	16995.103516
1706.992188	16866.957031
1705.973633	17003.812500
1704.954102	17054.765625
1703.934570	17007.605469
1702.915039	17333.164062
1701.895508	17004.039062
1700.875977	16751.015625
1699.855469	17145.064453
1698.834961	17382.154297
1697.814453	16835.216797
1696.793945	16998.796875
1695.773438	17042.318359
1694.751953	17129.896484
1693.730469	17077.902344
1692.709961	16822.771484
1691.687500	16690.089844
1690.666016	17054.154297
1689.644531	17092.722656
1688.622070	17084.804688
1687.599609	16622.027344
1686.577148	16880.705078
1685.554688	16870.380859
1684.532227	16791.623047
1683.508789	16817.974609
1682.485352	16683.056641
1681.461914	16787.589844
1680.438477	16738.208984
1679.415039	16735.244141
1678.391602	16529.626953
1677.367188	16834.285156
1676.342773	16582.347656
1675.318359	16806.357422
1674.293945	16510.595703
1673.268555	16841.873047
1672.244141	16663.279297
1671.218750	16609.117188
1670.193359	16484.265625
1669.167969	16712.925781
1668.141602	16614.910156
1667.116211	16575.412109
1666.089844	16492.072266
1665.063477	16732.748047
1664.037109	16586.083984
1663.010742	16556.357422
1661.983398	16297.779297
1660.957031	16360.614258
1659.929688	16644.904297
1658.902344	16593.285156
1657.875000	16495.457031
1656.846680	16370.905273
1655.819336	16701.199219
1654.791016	16447.775391
1653.762695	16437.564453
1652.734375	16483.263672
1651.705078	16186.264648
1650.676758	16219.842773
1649.647461	16321.433594
1648.618164	16153.360352
1647.588867	16434.646484
1646.559570	16344.314453
1645.529297	16275.863281
1644.500000	16355.504883
1643.469727	16282.221680
1642.439453	16208.963867
1641.409180	16405.023438
1640.377930	16030.990234
1639.347656	16328.869141
1638.316406	16342.944336
1637.285156	16432.167969
1636.253906	16380.772461
1635.222656	16280.924805
1634.190430	16508.222656
1633.158203	16413.232422
1632.125977	16327.963867
1631.093750	15947.270508
1630.061523	16281.001953
1629.029297	16222.429688
1627.996094	16374.458984
1626.962891	16461.091797
1625.929688	16463.005859
1624.896484	16467.339844
1623.863281	16357.989258
1622.829102	16173.708984
1621.794922	16260.297852
1620.760742	16213.894531
1619.726562	16302.860352
1618.692383	16464.291016
1617.657227	16555.597656
1616.622070	16330.406250
1615.587891	16238.137695
1614.551758	16534.697266
1613.516602	16217.878906
1612.481445	16309.142578
1611.445312	16521.052734
1610.409180	16305.757812
1609.373047	16208.762695
1608.336914	16164.871094
1607.300781	16465.894531
1606.263672	16405.091797
1605.226562	16370.830078
1604.189453	16182.303711
1603.152344	16442.132812
1602.115234	16258.479492
1601.077148	16274.861328
1600.039062	16435.771484
1599.000977	16355.776367
1597.962891	16425.107422
1596.924805	16622.015625
1595.885742	16751.453125
1594.847656	16654.609375
1593.808594	16389.359375
1592.769531	16381.630859
1591.730469	16304.146484
1590.690430	16282.004883
1589.651367	16072.311523
1588.611328	16211.296875
1587.571289	15895.925781
1586.531250	15873.870117
1585.490234	15919.101562
1584.450195	15740.888672
1583.409180	15947.062500
1582.368164	15785.717773
1581.327148	15965.396484
1580.285156	15772.894531
1579.244141	16043.722656
1578.202148	15894.472656
1577.160156	15826.856445
1576.118164	15778.456055
1575.076172	15933.954102
1574.033203	15952.699219
1572.991211	15976.233398
1571.948242	16071.677734
1570.905273	15970.541992
1569.862305	15586.657227
1568.818359	15842.653320
1567.775391	15751.192383
1566.731445	15851.379883
1565.687500	15807.843750
1564.643555	16027.700195
1563.598633	15912.330078
1562.554688	15904.707031
1561.509766	15660.173828
1560.464844	15970.817383
1559.419922	16011.030273
1558.374023	16209.085938
1557.329102	15971.843750
1556.283203	15930.741211
1555.237305	16243.447266
1554.191406	16362.444336
1553.145508	16314.124023
1552.098633	16478.460938
1551.052734	16363.248047
1550.005859	16861.886719
1548.958984	16971.113281
1547.912109	17104.175781
1546.864258	17091.576172
1545.816406	17374.927734
1544.769531	17672.494141
1543.721680	17814.876953
1542.672852	18140.880859
1541.625000	18321.287109
1540.576172	18442.013672
1539.528320	18584.154297
1538.479492	18330.550781
1537.430664	18615.654297
1536.380859	18416.939453
1535.332031	18404.123047
1534.282227	18555.667969
1533.232422	18149.871094
1532.182617	18018.050781
1531.132812	17562.500000
1530.082031	17178.517578
1529.031250	16866.070312
1527.981445	16948.718750
1526.929688	16757.750000
1525.878906	16381.320312
1524.828125	16516.328125
1523.776367	16287.493164
1522.724609	16108.664062
1521.672852	16020.218750
1520.621094	15976.958008
1519.569336	16066.769531
1518.516602	15847.718750
1517.463867	15897.141602
1516.411133	15770.813477
1515.358398	15568.551758
1514.305664	15404.343750
1513.251953	15567.735352
1512.198242	15472.404297
1511.144531	15448.285156
1510.090820	15502.458008
1509.037109	15364.495117
1507.982422	15634.457031
1506.927734	15494.147461
1505.873047	15247.213867
1504.818359	15393.804688
1503.763672	15452.664062
1502.708984	15461.748047
1501.653320	15700.604492
1500.597656	15505.956055
1499.541992	15129.042969
1498.486328	15258.920898
1497.429688	15140.202148
1496.373047	15208.496094
1495.317383	15002.275391
1494.260742	15153.373047
1493.203125	15006.371094
1492.146484	14906.720703
1491.088867	15027.013672
1490.031250	14915.573242
1488.973633	14830.172852
1487.916016	14957.502930
1486.858398	14647.649414
1485.799805	14704.089844
1484.741211	14791.216797
1483.682617	14970.416016
1482.624023	14844.954102
1481.565430	14726.618164
1480.505859	14676.775391
1479.446289	14964.421875
1478.386719	14515.792969
1477.327148	14675.972656
1476.267578	14479.933594
1475.207031	14599.970703
1474.147461	14429.950195
1473.086914	14785.693359
1472.026367	14497.849609
1470.964844	14525.888672
1469.904297	14775.395508
1468.842773	14744.480469
1467.781250	14680.601562
1466.719727	14581.421875
1465.658203	14397.516602
1464.595703	14682.130859
1463.533203	14639.488281
1462.471680	14622.747070
1461.409180	14831.876953
1460.345703	14739.830078
1459.283203	14859.489258
1458.219727	14863.880859
1457.156250	15155.102539
1456.092773	15227.608398
1455.029297	15194.326172
1453.965820	15118.757812
1452.901367	15339.241211
1451.836914	15235.485352
1450.772461	15197.526367
1449.708008	15274.638672
1448.642578	15246.075195
1447.578125	15104.851562
1446.512695	15271.118164
1445.447266	14904.678711
1444.381836	14972.387695
1443.315430	14892.296875
1442.250000	14809.889648
1441.183594	14664.202148
1440.117188	14647.505859
1439.050781	14522.994141
1437.983398	14670.374023
1436.916992	14677.114258
1435.849609	14571.404297
1434.782227	14489.153320
1433.714844	14624.721680
1432.647461	14528.441406
1431.579102	14500.083008
1430.510742	14469.394531
1429.442383	14164.918945
1428.374023	14316.798828
1427.305664	14131.762695
1426.236328	14409.892578
1425.167969	14421.336914
1424.098633	14187.281250
1423.028320	14388.108398
1421.958984	14128.431641
1420.889648	14102.527344
1419.819336	14055.604492
1418.749023	14165.206055
1417.678711	14038.878906
1416.608398	13984.985352
1415.537109	13996.482422
1414.465820	14246.070312
1413.395508	14000.790039
1412.323242	14070.612305
1411.251953	14126.410156
1410.180664	14305.814453
1409.108398	14086.352539
1408.036133	14205.073242
1406.963867	14202.520508
1405.891602	14146.357422
1404.818359	13817.544922
1403.746094	14173.894531
1402.672852	14110.776367
1401.599609	13928.888672
1400.525391	14096.389648
1399.452148	14140.423828
1398.377930	14144.866211
1397.303711	14025.944336
1396.229492	14002.478516
1395.155273	14034.862305
1394.081055	14030.012695
1393.005859	14048.422852
1391.930664	13864.509766
1390.855469	14031.746094
1389.780273	13815.355469
1388.704102	13850.058594
1387.628906	13694.196289
1386.552734	13752.141602
1385.476562	13814.710938
1384.400391	13863.322266
1383.323242	13932.814453
1382.247070	13972.098633
1381.169922	13946.372070
1380.092773	14036.698242
1379.014648	13929.750977
1377.937500	13820.522461
1376.859375	14031.441406
1375.782227	13729.737305
1374.704102	14223.489258
1373.625000	13982.135742
1372.546875	13678.284180
1371.467773	13970.150391
1370.388672	13777.630859
1369.309570	14210.691406
1368.230469	14064.523438
1367.151367	13862.826172
1366.071289	13978.417969
1364.991211	14258.335938
1363.911133	14042.823242
1362.831055	14142.119141
1361.750977	13935.958984
1360.669922	13963.522461
1359.588867	14030.396484
1358.507812	13817.427734
1357.426758	14110.890625
1356.345703	14015.879883
1355.263672	14276.841797
1354.181641	14124.063477
1353.099609	14290.181641
1352.017578	14172.104492
1350.935547	14185.717773
1349.852539	14282.458008
1348.769531	14485.366211
1347.686523	14295.777344
1346.603516	14565.540039
1345.520508	14595.219727
1344.436523	14668.724609
1343.352539	14869.070312
1342.268555	14972.479492
1341.184570	14930.580078
1340.100586	14782.643555
1339.015625	14853.740234
1337.930664	14786.532227
1336.845703	14737.781250
1335.760742	14677.528320
1334.675781	14467.576172
1333.589844	14460.360352
1332.503906	14384.070312
1331.417969	14105.218750
1330.332031	14001.398438
1329.246094	13939.038086
1328.159180	13754.752930
1327.072266	13634.946289
1325.985352	13595.685547
1324.898438	13643.824219
1323.811523	13963.254883
1322.723633	13383.731445
1321.635742	13436.477539
1320.547852	13542.058594
1319.459961	13399.461914
1318.371094	13406.231445
1317.283203	13261.413086
1316.194336	13249.833984
1315.105469	12997.186523
1314.016602	13238.163086
1312.926758	13185.281250
1311.837891	13024.568359
1310.748047	13182.814453
1309.658203	12962.518555
1308.568359	12868.439453
1307.477539	12976.180664
1306.387695	13276.459961
1305.296875	13037.966797
1304.206055	13065.404297
1303.114258	13076.791992
1302.023438	13074.429688
1300.931641	12930.054688
1299.840820	13271.236328
1298.748047	13213.885742
1297.656250	12886.417969
1296.564453	13119.843750
1295.471680	12959.568359
1294.378906	12762.742188
1293.286133	12897.693359
1292.193359	12934.245117
1291.099609	12822.140625
1290.006836	12588.896484
1288.913086	12712.349609
1287.819336	12563.774414
1286.725586	12691.756836
1285.630859	12614.065430
1284.536133	12511.274414
1283.442383	12495.307617
1282.346680	12442.811523
1281.251953	12440.560547
1280.157227	12493.094727
1279.061523	12483.988281
1277.965820	12452.066406
1276.870117	12630.046875
1275.774414	12595.828125
1274.677734	12404.257812
1273.581055	12673.357422
1272.485352	12869.406250
1271.387695	12538.846680
1270.291016	12912.607422
1269.194336	12869.255859
1268.096680	12659.616211
1266.999023	12796.266602
1265.901367	12996.630859
1264.803711	12648.189453
1263.705078	12821.189453
1262.606445	12766.518555
1261.507812	12864.336914
1260.409180	12693.638672
1259.310547	12648.118164
1258.210938	12861.898438
1257.111328	12679.921875
1256.011719	12527.568359
1254.912109	12391.180664
1253.812500	12377.572266
1252.711914	12459.408203
1251.612305	12529.853516
1250.511719	12268.627930
1249.410156	12332.267578
1248.309570	12157.458984
1247.208008	12159.796875
1246.107422	12155.323242
1245.005859	12257.517578
1243.903320	12042.002930
1242.801758	11987.640625
1241.699219	11994.541016
1240.597656	12039.992188
1239.495117	11942.578125
1238.391602	12121.774414
1237.289062	11772.785156
1236.185547	11961.012695
1235.082031	11983.767578
1233.978516	12011.044922
1232.875000	11965.832031
1231.771484	12074.625977
1230.666992	12104.134766
1229.562500	12027.236328
1228.458008	12081.637695
1227.353516	12099.812500
1226.248047	12045.580078
1225.143555	12192.694336
1224.038086	12016.332031
1222.931641	11989.278320
1221.826172	11996.146484
1220.720703	12070.825195
1219.614258	12140.957031
1218.507812	12104.859375
1217.401367	12071.033203
1216.294922	11985.266602
1215.187500	12062.135742
1214.080078	12231.553711
1212.972656	12100.651367
1211.865234	12342.229492
1210.757812	12290.340820
1209.649414	12358.056641
1208.541016	12391.908203
1207.432617	12421.235352
1206.324219	12362.601562
1205.215820	12238.602539
1204.106445	12191.293945
1202.997070	12349.106445
1201.887695	12290.526367
1200.778320	12344.621094
1199.668945	12434.738281
1198.558594	12344.641602
1197.448242	12263.583984
1196.337891	12481.998047
1195.227539	12517.998047
1194.117188	12761.041016
1193.005859	12326.681641
1191.894531	12574.169922
1190.783203	12700.100586
1189.671875	12664.057617
1188.559570	12414.412109
1187.447266	12598.753906
1186.334961	12609.951172
1185.222656	12659.347656
1184.110352	12814.333008
1182.998047	12710.909180
1181.884766	12749.028320
1180.771484	13013.951172
1179.658203	12654.580078
1178.543945	12600.646484
1177.430664	12629.777344
1176.316406	12634.212891
1175.202148	12320.043945
1174.087891	12194.422852
1172.972656	12230.333984
1171.858398	12001.621094
1170.743164	12062.214844
1169.627930	12142.960938
1168.512695	12187.818359
1167.396484	12078.041016
1166.281250	12165.459961
1165.165039	12069.166016
1164.048828	12237.179688
1162.931641	12199.125000
1161.815430	12091.681641
1160.698242	12158.871094
1159.581055	12243.938477
1158.463867	12190.246094
1157.346680	12337.916016
1156.228516	12161.204102
1155.111328	12132.153320
1153.993164	12091.933594
1152.875000	12007.017578
1151.755859	11933.307617
1150.637695	11895.378906
1149.518555	11850.760742
1148.399414	11736.907227
1147.280273	11953.651367
1146.160156	11730.398438
1145.041016	11804.172852
1143.920898	11690.409180
1142.800781	11708.366211
1141.680664	11949.461914
1140.559570	11858.042969
1139.439453	11884.880859
1138.318359	11603.934570
1137.197266	11722.231445
1136.075195	11615.311523
1134.954102	11704.584961
1133.832031	11644.507812
1132.709961	11350.489258
1131.587891	11415.254883
1130.465820	11428.765625
1129.342773	11435.589844
1128.220703	11264.284180
1127.097656	11366.861328
1125.974609	11467.173828
1124.850586	11291.503906
1123.727539	11322.819336
1122.603516	11425.308594
1121.479492	11283.103516
1120.355469	11327.744141
1119.230469	11376.814453
1118.106445	11199.127930
1116.981445	11208.197266
1115.856445	11075.046875
1114.730469	11335.188477
1113.605469	11330.899414
1112.479492	11193.356445
1111.353516	11053.643555
1110.227539	11180.391602
1109.101562	10980.798828
1107.974609	11129.706055
1106.848633	11103.266602
1105.721680	11076.836914
1104.594727	10994.963867
1103.466797	11103.839844
1102.339844	10995.384766
1101.211914	11192.893555
1100.083984	11084.460938
1098.956055	11035.899414
1097.827148	11193.410156
1096.699219	11047.375977
1095.570312	11160.529297
1094.441406	11120.845703
1093.311523	11036.895508
1092.182617	11032.666016
1091.052734	11074.915039
1089.922852	11052.976562
1088.792969	11046.532227
1087.663086	11035.666016
1086.532227	10987.206055
1085.402344	10925.496094
1084.271484	10854.964844
1083.139648	10919.292969
1082.008789	10899.617188
1080.876953	10720.859375
1079.746094	10895.632812
1078.614258	10944.443359
1077.481445	10730.439453
1076.349609	10768.220703
1075.216797	10883.252930
1074.083984	10881.262695
1072.951172	10671.838867
1071.818359	10727.251953
1070.685547	10853.235352
1069.551758	10846.838867
1068.417969	10908.804688
1067.284180	10706.178711
1066.149414	10834.275391
1065.015625	10810.253906
1063.880859	10819.293945
1062.746094	10861.376953
1061.611328	10727.226562
1060.476562	10859.605469
1059.340820	10727.705078
1058.205078	10855.631836
1057.069336	10880.057617
1055.933594	10713.013672
1054.796875	10724.254883
1053.661133	10843.286133
1052.524414	10781.915039
1051.387695	10821.724609
1050.250000	10659.239258
1049.113281	10628.709961
1047.975586	10756.438477
1046.837891	10673.162109
1045.700195	10578.930664
1044.561523	10647.287109
1043.423828	10770.524414
1042.285156	10696.088867
1041.146484	10608.505859
1040.007812	10624.123047
1038.868164	10683.627930
1037.728516	10675.087891
1036.589844	10802.570312
1035.449219	10647.048828
1034.309570	10568.340820
1033.169922	10518.166016
1032.029297	10590.775391
1030.888672	10634.863281
1029.748047	10573.745117
1028.606445	10712.034180
1027.465820	10624.635742
1026.324219	10458.419922
1025.182617	10548.475586
1024.041016	10594.709961
1022.898438	10671.573242
1021.756836	10564.561523
1020.614258	10411.636719
1019.471680	10621.947266
1018.328125	10442.817383
1017.185547	10661.792969
1016.041992	10473.973633
1014.898438	10629.460938
1013.754883	10634.068359
1012.610352	10540.330078
1011.466797	10544.951172
1010.322266	14859.842773
1009.177734	10565.109375
1008.033203	10541.332031
1006.887695	10565.599609
1005.742188	10690.276367
1004.597656	10563.904297
1003.451172	10409.209961
1002.305664	10573.118164
1001.160156	10595.173828
1000.013672	10473.272461
998.867188	10661.063477
997.720703	10404.020508
996.573242	10511.101562
995.426758	10496.095703
994.279297	10518.137695
993.131836	10381.131836
991.983398	10544.770508
990.835938	10423.053711
989.687500	10458.155273
988.539062	10571.616211
987.390625	10465.197266
986.242188	10580.791016
985.092773	10483.110352
983.944336	10639.990234
982.794922	10503.184570
981.644531	10583.890625
980.495117	10490.627930
979.344727	10419.137695
978.194336	10532.415039
977.043945	10367.502930
975.893555	10441.638672
974.742188	10450.581055
973.591797	10426.941406
972.440430	10498.853516
971.289062	10540.343750
970.136719	10362.584961
968.985352	10382.381836
967.833008	10556.229492
966.680664	10517.408203
965.528320	10649.954102
964.375000	10706.548828
963.221680	10778.299805
962.069336	10871.702148
960.915039	10854.530273
959.761719	11023.729492
958.608398	11047.702148
957.454102	11056.500977
956.299805	10924.515625
955.145508	10952.822266
953.990234	10885.855469
952.834961	10650.070312
951.680664	10587.510742
950.525391	10427.601562
949.369141	10397.557617
948.213867	10376.175781
947.057617	10324.525391
945.901367	10130.183594
944.745117	10446.112305
943.588867	10431.220703
942.431641	10459.554688
941.274414	10299.900391
940.117188	10289.362305
938.959961	10181.633789
937.801758	10393.546875
936.644531	10350.610352
935.486328	10221.341797
934.328125	10169.818359
933.168945	10349.207031
932.010742	10211.378906
930.851562	10468.348633
929.692383	10434.069336
928.533203	10151.829102
927.373047	10376.327148
926.213867	10342.083008
925.053711	10387.588867
923.893555	10351.199219
922.732422	10368.680664
921.572266	10502.465820
920.411133	10761.105469
919.250000	10597.637695
918.088867	10531.102539
916.926758	10591.578125
915.765625	10522.916016
914.603516	10488.702148
913.441406	10402.874023
912.279297	10304.172852
911.116211	10239.913086
909.953125	10388.520508
908.790039	10128.658203
907.626953	10202.010742
906.463867	10290.375977
905.299805	10273.439453
904.135742	10290.875977
902.971680	10130.057617
901.807617	10158.249023
900.643555	10117.732422
899.478516	10102.987305
898.313477	10043.180664
897.148438	10011.289062
895.982422	9960.102539
894.817383	10091.241211
893.651367	10110.822266
892.485352	9791.643555
891.319336	9879.867188
890.152344	9953.055664
888.986328	9981.217773
887.819336	10135.770508
886.652344	10013.946289
885.484375	10177.001953
884.317383	9881.774414
883.149414	9839.273438
881.981445	10085.747070
880.813477	10013.262695
879.644531	10189.002930
878.475586	10092.994141
877.307617	10007.713867
876.137695	9950.264648
874.968750	9920.631836
873.798828	10081.261719
872.629883	9996.044922
871.459961	9932.227539
870.289062	9932.528320
869.119141	9973.414062
867.948242	9963.028320
866.777344	9916.344727
865.606445	10106.653320
864.435547	10049.288086
863.263672	10134.928711
862.092773	9996.497070
860.920898	10229.314453
859.748047	9896.818359
858.576172	9954.699219
857.403320	10102.108398
856.230469	9955.280273
855.057617	9910.811523
853.884766	10053.883789
852.710938	9915.667969
851.538086	10131.111328
850.364258	10020.618164
849.189453	10095.421875
848.015625	10033.942383
846.840820	10144.901367
845.666016	10206.870117
844.491211	10185.831055
843.316406	10164.798828
842.140625	10145.901367
840.965820	10250.354492
839.790039	10163.407227
838.613281	9914.928711
837.437500	10168.146484
836.260742	9930.382812
835.083984	9998.658203
833.907227	10028.670898
832.730469	10050.175781
831.552734	10114.142578
830.375977	10042.208008
829.198242	10112.519531
828.019531	10392.912109
826.841797	10059.969727
825.663086	10119.629883
824.484375	10196.236328
823.305664	10209.192383
822.126953	10124.607422
820.947266	10097.291992
819.767578	10309.496094
818.587891	10273.678711
817.408203	10119.223633
816.228516	10303.764648
815.047852	10200.191406
813.867188	10249.123047
812.686523	10185.824219
811.504883	10372.331055
810.324219	9919.613281
809.142578	10095.519531
807.960938	10144.421875
806.779297	10112.927734
805.596680	10085.674805
804.415039	10140.893555
803.232422	10122.100586
802.048828	10067.381836
800.866211	9932.377930
799.682617	9979.131836
798.500000	9774.481445
797.315430	9962.756836
796.131836	9874.328125
794.948242	9918.945312
793.763672	9895.995117
792.579102	9697.879883
791.394531	9883.881836
790.208984	9717.487305
789.024414	9747.324219
787.838867	9943.756836
786.653320	9891.305664
785.466797	9868.387695
784.281250	9963.513672
783.094727	9942.697266
781.908203	9818.644531
780.721680	9901.085938
779.534180	9884.503906
778.347656	9815.281250
777.160156	9992.420898
775.972656	9765.324219
774.784180	10016.069336
773.596680	9786.948242
772.408203	9963.958984
771.219727	9917.935547
770.031250	9880.339844
768.841797	9840.655273
767.653320	9935.533203
766.463867	9973.623047
765.274414	9959.160156
764.083984	9936.297852
762.894531	10001.674805
761.704102	10079.629883
760.513672	9939.158203
759.322266	10210.255859
758.131836	10074.009766
756.940430	10025.962891
755.749023	10133.215820
754.557617	10565.621094
753.365234	10540.583008
752.173828	10888.861328
750.981445	11520.083984
749.789062	12115.432617
748.595703	11981.125977
747.403320	11475.934570
746.209961	10910.166992
745.016602	10627.420898
743.823242	10275.661133
742.628906	10066.430664
741.435547	10127.370117
740.241211	9918.244141
739.046875	9993.837891
737.851562	10021.273438
736.657227	10059.160156
735.461914	10071.929688
734.266602	9957.120117
733.070312	9777.531250
731.875000	10170.836914
730.678711	10058.161133
729.482422	10171.229492
728.286133	10115.009766
727.089844	10069.255859
725.892578	10136.306641
724.695312	10067.593750
723.498047	10059.455078
722.300781	10161.956055
721.102539	10147.541016
719.904297	10062.181641
718.706055	10112.464844
717.507812	10037.573242
716.308594	10229.659180
715.110352	10186.049805
713.911133	10240.441406
712.711914	10088.456055
711.511719	10067.820312
710.311523	10011.769531
709.112305	10053.651367
707.912109	9935.138672
706.710938	10041.573242
705.510742	10147.968750
704.309570	10104.443359
703.108398	9973.519531
701.907227	9932.123047
700.705078	9882.418945
699.502930	9814.011719
698.301758	9982.719727
697.098633	9824.907227
695.896484	9762.784180
694.693359	9829.556641
693.491211	9657.311523
692.287109	9773.944336
691.083984	9574.766602
689.880859	9811.837891
688.676758	9724.865234
687.472656	9822.709961
686.268555	9671.415039
685.063477	9802.440430
683.858398	9734.208008
682.654297	9780.108398
681.448242	9614.413086
680.243164	9747.422852
679.037109	9606.676758
677.832031	9731.344727
676.625977	9884.984375
675.418945	9615.802734
674.212891	9522.839844
673.005859	9632.927734
671.798828	9622.843750
670.591797	9596.196289
669.383789	9542.643555
668.176758	9683.694336
666.968750	9543.217773
665.760742	9835.272461
664.551758	9667.922852
663.343750	9817.117188
662.134766	9645.697266
660.925781	9571.524414
659.715820	9718.584961
658.506836	9753.973633
657.296875	9688.086914
656.086914	9766.857422
654.876953	9603.898438
653.666016	9666.130859
652.456055	9651.933594
651.245117	9608.836914
650.034180	9561.625977
648.822266	9396.792969
647.611328	9663.288086
646.399414	9576.894531
645.187500	9339.954102
643.974609	9692.926758
642.762695	9604.512695
641.549805	9507.884766
640.336914	9611.225586
639.124023	9640.338867
637.910156	9440.737305
636.696289	9877.752930
635.483398	9601.974609
634.268555	9523.985352
633.054688	9491.320312
631.839844	9641.871094
630.625000	9508.348633
629.410156	9364.587891
628.195312	9414.267578
626.979492	9470.099609
625.764648	9427.195312
624.548828	9332.903320
623.332031	9316.765625
622.116211	9292.411133
620.899414	9467.401367
619.682617	9527.266602
618.465820	9416.608398
617.248047	9460.029297
616.031250	9098.900391
614.813477	9423.635742
613.595703	9323.341797
612.376953	9370.849609
611.159180	9315.744141
609.940430	9289.379883
608.721680	9384.043945
607.502930	9228.477539
606.283203	9280.057617
605.063477	9196.318359
603.843750	9270.430664
602.624023	9305.579102
601.403320	9064.119141
600.183594	9109.534180
598.962891	9210.230469
597.742188	9222.837891
596.520508	9395.129883
595.299805	9192.769531
594.078125	9188.999023
592.856445	9111.567383
591.633789	9263.291992
590.412109	9331.097656
589.189453	9090.081055
587.966797	9266.258789
586.743164	9313.582031
585.520508	9309.791016
584.296875	9259.000977
583.073242	9338.987305
581.849609	9130.920898
580.625000	9231.323242
579.401367	9119.326172
578.176758	9187.027344
576.952148	9224.084961
575.726562	9142.762695
574.500977	9216.541992
573.276367	9220.931641
572.049805	9151.891602
570.824219	9142.016602
569.598633	9201.466797
568.372070	9042.774414
567.145508	9098.143555
565.917969	9167.754883
564.691406	9182.332031
563.463867	9082.833008
562.236328	9305.150391
561.008789	9197.520508
559.780273	9144.896484
558.552734	9090.257812
557.324219	9080.409180
556.094727	9029.871094
554.866211	9097.339844
553.636719	9130.206055
552.407227	8982.076172
551.177734	9027.150391
549.948242	9120.993164
548.717773	9027.822266
547.488281	9115.532227
546.256836	9058.964844
545.026367	9120.230469
543.795898	9067.744141
542.564453	8938.119141
541.333008	8966.889648
540.100586	8987.530273
538.869141	8933.077148
537.636719	9189.072266
536.404297	8923.631836
535.171875	8930.065430
533.939453	9048.025391
532.706055	9084.843750
531.472656	9034.486328
530.239258	9099.665039
529.004883	9110.110352
527.771484	8885.548828
526.537109	9056.043945
525.302734	8924.731445
524.067383	8973.670898
522.833008	8913.274414
521.597656	8873.141602
520.362305	8970.626953
519.126953	8871.823242
517.890625	8758.897461
516.654297	8880.618164
515.417969	8913.320312
514.181641	8669.038086
512.944336	8734.109375
511.708008	8892.118164
510.470703	8878.319336
509.233398	8816.041992
507.995117	8838.619141
506.756836	8756.176758
505.518555	8760.583984
504.280273	8775.083008
503.041992	8761.319336
501.802734	8862.581055
500.563477	8699.509766
499.324219	8808.812500
498.084961	8738.583008
496.844727	8801.458984
495.604492	8856.248047
494.364258	8683.251953
493.124023	8623.172852
491.882812	8631.621094
490.642578	8668.268555
489.401367	8767.338867
488.159180	8699.232422
486.917969	8606.992188
485.675781	8865.039062
484.433594	8613.808594
483.191406	8493.463867
481.948242	8509.968750
480.705078	8608.934570
479.462891	8579.155273
478.218750	8571.504883
476.975586	8360.816406
475.731445	8542.141602
474.487305	8444.071289
473.243164	8514.807617
471.999023	8649.796875
470.753906	8569.836914
469.508789	8532.075195
468.263672	8381.898438
467.018555	8468.635742
465.772461	8605.511719
464.526367	8503.561523
463.280273	8493.931641
462.034180	8566.540039
460.787109	8506.766602
459.540039	8625.458984
458.292969	8503.553711
457.045898	8515.976562
455.797852	8444.233398
454.550781	8586.887695
453.302734	8631.336914
452.053711	8559.611328
450.805664	8580.019531
449.556641	8766.582031
448.307617	8840.985352
447.058594	8855.324219
445.808594	8855.651367
444.559570	8849.976562
443.309570	8860.303711
442.059570	8814.635742
440.808594	8758.988281
439.557617	8803.307617
438.307617	8665.741211
437.055664	8650.115234
435.804688	8814.296875
434.552734	8572.939453
433.300781	8663.181641
432.048828	8603.639648
430.796875	8380.424805
429.543945	8468.655273
428.291016	8457.075195
427.038086	8385.644531
425.785156	8332.194336
424.531250	8398.426758
423.278320	8462.640625
422.023438	8447.083984
420.769531	8589.000000
419.515625	8431.928711
418.260742	8386.498047
417.005859	8502.446289
415.750000	8405.232422
414.495117	8551.003906
413.239258	8593.186523
411.983398	8697.063477
410.727539	8347.122070
409.470703	8518.660156
408.214844	8469.298828
406.958008	8294.641602
405.700195	8338.811523
404.443359	8231.848633
403.185547	8240.229492
401.927734	8226.742188
400.669922	8316.596680
399.411133	8152.098145
398.153320	8178.364258
396.894531	8029.842285
395.635742	8072.006836
394.375977	8038.711426
393.116211	7854.569824
391.857422	8075.356445
390.596680	7960.724609
389.336914	7931.441895
388.076172	7912.086914
386.815430	7789.617676
385.554688	8087.531738
384.293945	8046.351562
383.032227	7999.240234
381.770508	7874.864258
380.508789	7875.352051
379.247070	7881.781738
377.984375	7781.263184
376.721680	7963.935547
375.458984	7873.337402
374.196289	7943.100098
372.932617	7872.329102
371.668945	7767.948730
370.405273	7843.625000
369.141602	7711.599121
367.876953	7753.639648
366.613281	7870.793457
365.347656	7719.069336
364.083008	7685.982910
362.818359	7741.826660
361.552734	7975.452148
360.287109	7727.036133
359.020508	7611.028320
357.754883	7745.820801
356.488281	7610.111816
355.221680	7750.773926
353.955078	7745.355469
352.687500	7824.775879
351.419922	7726.632812
350.152344	7652.192871
348.884766	7595.527832
347.616211	7793.202637
346.348633	7697.109375
345.080078	7579.375000
343.810547	7686.303223
342.541992	7759.701172
341.272461	7586.872070
340.002930	7420.015625
338.733398	7467.826660
337.462891	7564.830566
336.193359	7673.605469
334.922852	7443.891113
333.651367	7507.398438
332.380859	7606.286621
331.109375	7549.775391
329.837891	7487.386719
328.566406	7584.255371
327.293945	7474.711426
326.022461	7654.079590
324.750000	7448.291504
323.477539	7480.268555
322.204102	7537.765137
320.930664	7459.750488
319.657227	7595.757324
318.383789	7598.237793
317.110352	7502.592773
315.835938	7565.914551
314.561523	7456.578613
313.287109	7508.116699
312.011719	7585.127441
310.737305	7615.053223
309.461914	7392.095703
308.185547	7418.126465
306.910156	7600.907227
305.633789	7503.462891
304.357422	7398.219727
303.081055	7392.894043
301.804688	7526.588867
300.527344	7370.501953
299.250000	7345.610840
297.972656	7408.789062
296.694336	7378.030273
295.416992	7398.142090
294.138672	7341.971191
292.860352	7418.788086
291.581055	7405.644043
290.301758	7281.089844
289.022461	7375.461914
287.743164	7301.761719
286.463867	7345.301270
285.183594	7310.697266
283.903320	7239.003418
282.623047	7296.195801
281.342773	7199.154297
280.061523	7242.670410
278.780273	7192.506836
277.499023	7236.006836
276.216797	7133.197754
274.935547	7196.193359
273.653320	7276.713379
272.370117	7023.846680
271.087891	7145.298828
269.804688	7227.729492
268.521484	6992.551270
267.238281	7170.429199
265.955078	7036.625000
264.670898	7113.170898
263.386719	6985.269043
262.102539	7038.437012
260.817383	7136.344727
259.533203	7057.153320
258.248047	7112.221680
256.962891	6939.705566
255.676758	7033.666504
254.390625	7182.030273
253.104492	7095.128906
251.818359	6944.124512
250.532227	6977.774414
249.245117	6892.903320
247.958008	7085.825684
246.670898	7012.617676
245.382812	7075.352539
244.095703	7079.824707
242.807617	6995.013184
241.518555	6974.271484
240.230469	6982.640137
238.941406	7173.344727
237.652344	7063.366699
236.363281	7226.835938
235.074219	6940.469238
233.784180	6974.032227
232.494141	7034.712891
231.204102	7054.681641
229.913086	6824.743652
228.622070	6962.890625
227.331055	6955.750000
226.040039	6886.656738
224.749023	6927.925781
223.457031	6765.967285
222.165039	6805.307617
220.873047	6891.063477
219.580078	6785.296387
218.287109	6813.006836
216.994141	6805.902832
215.701172	6827.798340
214.407227	6820.693848
213.114258	6817.456055
211.820312	6823.879883
210.525391	6785.872559
209.231445	6813.542969
207.936523	6709.900879
206.641602	6749.158203
205.346680	6730.494629
204.050781	6715.697754
202.754883	6737.564941
201.458984	6693.835938
200.163086	6790.917480
198.866211	6589.071777
197.569336	6688.063477
196.272461	6781.233887
194.975586	6631.540039
193.677734	6566.684082
192.379883	6590.470215
191.082031	6604.616699
189.784180	6589.871094
188.485352	6557.802734
187.187500	6752.896484
185.887695	6670.768066
184.588867	6532.867188
183.289062	6691.298340
181.989258	6653.468750
180.689453	6632.961914
179.389648	6658.609863
178.088867	6626.574707
176.788086	6646.446777
175.487305	6627.877441
174.186523	6661.190430
172.884766	6584.996094
171.583008	6647.112305
170.281250	6538.306152
168.979492	6694.479004
167.676758	6672.081055
166.374023	6628.581055
165.071289	6496.835449
163.767578	6614.527832
162.463867	6482.834961
161.160156	6533.367188
159.856445	6520.609863
158.552734	6440.766113
157.248047	6493.192871
155.943359	6405.719727
154.638672	6448.553223
153.333008	6512.439941
152.027344	6331.174805
150.721680	6285.921387
149.416016	6487.632812
148.110352	6371.549805
146.803711	6339.708984
145.497070	6325.099121
144.189453	6312.407715
142.882812	6370.482422
141.575195	6273.652832
140.267578	6289.653809
138.959961	6370.634766
137.651367	6396.165527
136.342773	6341.438477
135.034180	6153.012695
133.725586	6161.379883
132.416016	6297.683105
131.106445	6036.824707
129.796875	6043.299805
128.487305	5992.518555
127.176758	5932.216797
125.866211	5721.228027
124.555664	5723.942871
123.244141	5566.470215
121.933594	5561.586914
120.622070	5392.768066
119.309570	5302.154785
117.998047	5017.213867
116.685547	4747.623535
115.373047	4428.612305
114.060547	3892.620117
112.748047	3452.036621
111.434570	2800.313965
110.121094	2388.659424
108.806641	1901.045044
107.493164	1457.377686
106.178711	1225.026978
104.864258	840.617615
103.549805	621.785217
102.234375	442.960449
100.918945	311.723297
99.603516	229.946716
