#Wave		#Intensity
1998.884766	2521.244141
1997.916992	2539.326904
1996.949219	2507.890869
1995.981445	2595.253418
1995.012695	2566.400146
1994.044922	2612.418701
1993.076172	2547.438721
1992.107422	2588.283203
1991.138672	2567.191162
1990.168945	2551.265869
1989.200195	2610.142578
1988.230469	2532.325195
1987.260742	2493.209229
1986.291016	2515.975098
1985.321289	2492.339600
1984.350586	2509.943604
1983.380859	2555.882812
1982.410156	2578.621582
1981.439453	2477.723389
1980.468750	2588.022705
1979.497070	2536.077148
1978.526367	2455.833008
1977.554688	2488.864014
1976.583984	2511.590088
1975.612305	2575.474365
1974.639648	2598.177002
1973.667969	2574.575684
1972.696289	2548.410889
1971.723633	2617.385986
1970.750977	2591.222656
1969.778320	2552.217285
1968.805664	2505.516357
1967.832031	2507.648193
1966.859375	2489.228516
1965.885742	2501.635986
1964.912109	2549.990723
1963.938477	2634.273682
1962.964844	2574.771240
1961.991211	2566.621826
1961.016602	2563.607422
1960.041992	2647.828857
1959.067383	2539.624756
1958.092773	2503.273682
1957.118164	2584.896729
1956.142578	2653.671631
1955.167969	2476.327637
1954.192383	2691.190186
1953.216797	2590.779053
1952.241211	2505.775879
1951.264648	2651.354736
1950.289062	2504.900391
1949.312500	2573.604492
1948.335938	2473.301025
1947.359375	2662.302002
1946.382812	2538.982910
1945.406250	2584.601318
1944.428711	2596.942627
1943.451172	2588.814453
1942.473633	2596.034912
1941.496094	2531.650635
1940.518555	2474.958984
1939.541016	2538.434814
1938.562500	2563.549805
1937.583984	2565.657227
1936.605469	2570.318604
1935.626953	2574.978271
1934.648438	2648.596924
1933.668945	2489.807617
1932.690430	2604.266357
1931.710938	2557.861328
1930.731445	2567.623291
1929.751953	2648.833984
1928.771484	2599.893799
1927.791992	2438.727783
1926.811523	2660.197021
1925.831055	2603.629883
1924.850586	2493.540283
1923.870117	2610.366699
1922.888672	2643.043701
1921.908203	2578.874023
1920.926758	2639.571045
1919.945312	2555.044922
1918.963867	2625.912598
1917.982422	2533.778809
1917.000000	2586.802734
1916.018555	2662.718750
1915.036133	2560.445801
1914.053711	2562.542236
1913.071289	2620.612305
1912.087891	2620.153564
1911.105469	2576.457275
1910.122070	2522.604492
1909.138672	2623.862793
1908.155273	2564.936279
1907.171875	2528.904541
1906.187500	2566.579346
1905.204102	2550.885498
1904.219727	2568.220947
1903.235352	2547.452393
1902.250977	2516.533691
1901.266602	2716.669434
1900.281250	2584.191650
1899.296875	2629.424072
1898.311523	2537.609619
1897.326172	2631.040283
1896.340820	2569.697998
1895.354492	2584.465576
1894.369141	2660.087646
1893.382812	2608.913818
1892.396484	2580.572510
1891.410156	2618.137695
1890.423828	2579.668213
1889.436523	2660.291504
1888.450195	2604.095703
1887.462891	2514.994141
1886.475586	2555.069824
1885.488281	2628.045166
1884.500977	2584.550781
1883.512695	2647.371338
1882.525391	2553.278809
1881.537109	2573.071533
1880.548828	2552.383545
1879.560547	2632.869629
1878.571289	2571.718506
1877.583008	2588.965576
1876.593750	2555.649658
1875.604492	2471.797119
1874.615234	2587.603760
1873.625977	2577.043945
1872.635742	2579.117920
1871.646484	2560.986328
1870.656250	2547.911133
1869.666016	2575.236328
1868.675781	2592.454590
1867.684570	2516.284180
1866.694336	2644.536865
1865.703125	2596.136230
1864.711914	2499.824707
1863.720703	2675.932129
1862.729492	2650.246094
1861.738281	2591.793457
1860.746094	2596.380127
1859.753906	2520.314941
1858.762695	2693.743896
1857.769531	2597.532715
1856.777344	2700.355225
1855.785156	2604.176514
1854.791992	2628.900391
1853.798828	2648.580078
1852.805664	2643.080566
1851.812500	2577.180420
1850.819336	2564.146240
1849.825195	2631.625000
1848.831055	2585.884766
1847.837891	2633.215820
1846.842773	2590.005859
1845.848633	2649.889893
1844.854492	2634.342529
1843.859375	2628.853271
1842.864258	2628.391357
1841.869141	2630.442139
1840.874023	2727.944824
1839.878906	2534.081787
1838.883789	2664.210449
1837.887695	2756.634521
1836.891602	2570.398682
1835.895508	2680.374268
1834.899414	2699.977539
1833.902344	2616.711670
1832.906250	2616.251709
1831.909180	2628.331543
1830.912109	2625.362061
1829.915039	2642.450195
1828.917969	2571.800049
1827.919922	2521.224365
1826.922852	2673.631592
1825.924805	2587.981201
1824.926758	2587.526123
1823.928711	2707.283447
1822.929688	2659.231689
1821.931641	2621.210938
1820.932617	2665.805908
1819.933594	2615.283936
1818.934570	2692.392822
1817.935547	2664.399658
1816.935547	2638.917480
1815.936523	2683.469727
1814.936523	2695.500000
1813.936523	2747.526367
1812.936523	2632.062012
1811.935547	2646.593750
1810.935547	2638.632080
1809.934570	2700.624512
1808.933594	2605.231934
1807.932617	2602.276123
1806.931641	2676.726562
1805.929688	2628.821777
1804.928711	2633.351318
1803.926758	2642.870117
1802.924805	2632.424316
1801.922852	2661.897949
1800.919922	2698.843994
1799.917969	2638.515869
1798.915039	2705.374023
1797.912109	2615.150146
1796.909180	2594.749268
1795.906250	2649.118896
1794.903320	2698.485840
1793.899414	2683.063232
1792.895508	2617.829834
1791.891602	2639.782227
1790.887695	2718.994629
1789.883789	2594.041748
1788.878906	2638.387451
1787.875000	2667.786133
1786.870117	2513.049561
1785.865234	2629.530273
1784.859375	2624.092285
1783.854492	2668.393311
1782.848633	2745.002197
1781.843750	2662.481201
1780.837891	2639.642090
1779.832031	2619.296143
1778.825195	2753.006348
1777.819336	2596.014893
1776.812500	2757.003662
1775.805664	2677.050537
1774.798828	2582.228027
1773.791992	2651.281982
1772.784180	2593.727783
1771.777344	2635.457764
1770.769531	2647.398926
1769.761719	2639.489746
1768.753906	2614.221680
1767.746094	2641.038818
1766.737305	2722.393799
1765.729492	2669.855225
1764.720703	2639.641846
1763.711914	2597.048584
1762.702148	2675.875732
1761.693359	2697.698730
1760.683594	2622.919189
1759.674805	2585.311279
1758.665039	2725.982422
1757.654297	2621.531250
1756.644531	2640.869141
1755.634766	2637.928467
1754.624023	2630.040527
1753.613281	2770.579102
1752.602539	2616.745850
1751.591797	2611.338379
1750.580078	2677.632812
1749.569336	2590.640869
1748.557617	2629.728271
1747.545898	2602.081787
1746.534180	2675.742920
1745.522461	2554.228760
1744.509766	2622.932373
1743.497070	2585.428711
1742.484375	2624.475098
1741.471680	2643.759766
1740.458984	2677.845703
1739.446289	2731.660400
1738.432617	2657.162354
1737.418945	2555.556152
1736.405273	2710.482910
1735.391602	2586.709961
1734.377930	2625.700195
1733.363281	2610.446289
1732.348633	2614.914307
1731.334961	2695.769043
1730.319336	2665.728271
1729.304688	2675.110352
1728.290039	2637.695068
1727.274414	2681.552246
1726.258789	2653.996826
1725.243164	2609.220215
1724.227539	2734.274902
1723.211914	2770.701416
1722.195312	2671.802734
1721.178711	2636.893555
1720.163086	2653.642822
1719.145508	2704.811035
1718.128906	2645.329346
1717.112305	2551.455811
1716.094727	2649.309082
1715.077148	2621.811768
1714.059570	2609.064453
1713.041992	2657.729248
1712.024414	2598.318359
1711.005859	2651.878418
1709.987305	2563.029053
1708.968750	2749.123535
1707.950195	2535.126953
1706.931641	2672.086182
1705.912109	2649.533936
1704.893555	2717.744629
1703.874023	2675.572998
1702.854492	2675.099609
1701.833984	2652.562500
1700.814453	2661.897461
1699.793945	2607.511719
1698.774414	2803.069092
1697.753906	2628.637207
1696.732422	2576.735352
1695.711914	2661.991943
1694.691406	2754.563721
1693.669922	2722.251221
1692.648438	2665.473877
1691.626953	2674.790771
1690.605469	2686.551025
1689.583008	2644.487793
1688.560547	2639.127686
1687.539062	2741.370117
1686.516602	2731.104492
1685.493164	2654.838135
1684.470703	2715.472168
1683.447266	2661.229004
1682.424805	2604.561768
1681.401367	2731.129639
1680.377930	2764.840088
1679.353516	2673.996094
1678.330078	2712.587646
1677.305664	2712.106934
1676.281250	2704.304443
1675.256836	2647.698975
1674.232422	2674.068115
1673.207031	2639.442383
1672.182617	2753.606689
1671.157227	2675.085205
1670.131836	2762.383301
1669.106445	2615.632812
1668.080078	2661.476807
1667.054688	2658.568359
1666.028320	2658.096924
1665.001953	2716.088623
1663.975586	2679.074219
1662.949219	2761.392334
1661.921875	2775.510742
1660.895508	2677.649658
1659.868164	2584.690430
1658.840820	2774.034668
1657.813477	2637.298340
1656.785156	2629.533203
1655.757812	2619.338623
1654.729492	2648.053711
1653.701172	2696.208008
1652.672852	2732.191406
1651.643555	2741.427979
1650.615234	2626.735840
1649.585938	2643.276123
1648.556641	2647.665283
1647.527344	2693.339355
1646.498047	2668.579346
1645.467773	2619.550781
1644.438477	2633.649902
1643.408203	2659.878418
1642.377930	2693.376709
1641.346680	2649.229980
1640.316406	2624.503662
1639.285156	2493.078613
1638.254883	2625.996826
1637.223633	2642.500732
1636.192383	2639.607666
1635.160156	2704.572266
1634.128906	2621.709473
1633.096680	2660.005371
1632.064453	2717.664795
1631.032227	2707.495361
1630.000000	2651.324463
1628.966797	2629.065674
1627.934570	2739.939209
1626.901367	2548.271484
1625.868164	2550.238525
1624.833984	2719.125977
1623.800781	2604.963135
1622.766602	2727.833252
1621.733398	2594.365967
1620.699219	2630.166504
1619.665039	2665.954346
1618.629883	2648.564453
1617.595703	2669.839111
1616.560547	2572.736084
1615.525391	2548.125977
1614.490234	2598.385010
1613.455078	2576.193359
1612.418945	2592.633301
1611.382812	2642.857422
1610.347656	2572.406494
1609.311523	2644.330566
1608.274414	2629.386719
1607.238281	2667.508789
1606.201172	2640.508789
1605.164062	2659.327148
1604.126953	2629.927490
1603.089844	2680.072754
1602.052734	2547.062012
1601.014648	2602.022461
1599.977539	2632.874756
1598.939453	2593.871582
1597.901367	2643.978027
1596.862305	2607.394043
1595.824219	2618.966064
1594.785156	2601.653076
1593.746094	2565.095947
1592.707031	2627.191650
1591.667969	2708.508545
1590.627930	2700.811523
1589.588867	2664.262451
1588.548828	2678.213135
1587.508789	2708.984619
1586.468750	2612.371094
1585.427734	2647.948975
1584.387695	2618.648438
1583.346680	2735.880127
1582.305664	2617.716064
1581.264648	2641.261475
1580.222656	2662.397461
1579.181641	2647.521729
1578.139648	2623.051758
1577.097656	2699.366455
1576.055664	2667.698730
1575.013672	2636.041992
1573.970703	2649.961426
1572.928711	2745.398438
1571.885742	2613.057861
1570.842773	2682.101807
1569.799805	2636.091309
1568.755859	2731.462646
1567.711914	2639.943359
1566.668945	2742.465088
1565.625000	2643.791992
1564.580078	2667.264160
1563.536133	2621.304932
1562.491211	2678.280762
1561.447266	2613.191650
1560.402344	2677.326172
1559.357422	2669.672363
1558.311523	2614.186035
1557.266602	2608.937500
1556.220703	2606.081543
1555.174805	2662.988281
1554.128906	2681.633789
1553.083008	2705.051758
1552.036133	2654.396484
1550.989258	2613.313965
1549.943359	2722.711670
1548.896484	2631.485352
1547.848633	2657.278320
1546.801758	2637.707764
1545.753906	2613.370850
1544.706055	2653.470459
1543.658203	2629.139160
1542.610352	2666.835938
1541.562500	2632.970947
1540.513672	2646.808350
1539.464844	2593.885986
1538.416016	2707.838867
1537.367188	2657.307861
1536.318359	2597.263184
1535.268555	2663.506592
1534.219727	2596.336182
1533.169922	2755.435547
1532.119141	2664.461670
1531.069336	2704.457520
1530.019531	2625.426270
1528.968750	2632.096924
1527.917969	2591.177002
1526.867188	2624.020264
1525.816406	2668.744385
1524.764648	2608.814453
1523.713867	2708.212402
1522.662109	2688.710449
1521.610352	2576.517822
1520.557617	2668.738525
1519.505859	2649.253906
1518.453125	2608.395508
1517.400391	2712.436768
1516.347656	2759.447021
1515.294922	2709.093506
1514.242188	2582.793213
1513.188477	2724.739746
1512.134766	2605.600586
1511.081055	2730.883789
1510.027344	2635.508057
1508.973633	2668.241699
1507.918945	2696.220947
1506.865234	2612.756836
1505.810547	2654.958740
1504.755859	2675.814941
1503.700195	2578.180908
1502.645508	2745.935059
1501.589844	2634.110352
1500.534180	2697.585693
1499.478516	2716.046875
1498.422852	2675.313232
1497.366211	2613.290039
1496.310547	2660.156250
1495.253906	2631.285400
1494.197266	2689.960693
1493.139648	2710.768311
1492.083008	2610.953857
1491.025391	2653.049072
1489.967773	2699.857422
1488.910156	2628.462646
1487.852539	2566.546387
1486.794922	2606.256104
1485.736328	2721.550293
1484.677734	2671.460449
1483.619141	2628.473389
1482.560547	2635.086670
1481.501953	2601.564209
1480.442383	2603.458984
1479.382812	2645.471436
1478.323242	2616.684082
1477.263672	2609.138428
1476.204102	2688.865479
1475.143555	2645.935791
1474.083008	2718.554199
1473.023438	2623.771973
1471.961914	2599.732422
1470.901367	2559.205811
1469.840820	2662.416748
1468.779297	2657.228516
1467.717773	2661.463135
1466.656250	2623.308838
1465.593750	2695.826416
1464.532227	2664.741211
1463.469727	2612.484863
1462.407227	2616.723145
1461.344727	2557.435791
1460.282227	2629.899658
1459.219727	2725.856445
1458.156250	2610.145264
1457.092773	2595.571289
1456.029297	2717.339355
1454.965820	2594.640869
1453.901367	2683.468262
1452.837891	2624.252930
1451.773438	2633.178223
1450.708984	2569.295898
1449.643555	2571.183350
1448.579102	2526.116211
1447.513672	2591.386963
1446.449219	2543.985352
1445.382812	2616.268311
1444.317383	2723.715576
1443.251953	2570.763916
1442.185547	2612.515869
1441.119141	2614.392090
1440.052734	2571.725342
1438.986328	2601.734863
1437.919922	2699.694580
1436.852539	2621.889160
1435.786133	2614.390625
1434.718750	2571.761719
1433.650391	2655.605225
1432.583008	2650.445801
1431.514648	2652.311279
1430.447266	2689.283936
1429.378906	2627.958252
1428.310547	2625.146729
1427.241211	2552.157959
1426.172852	2649.932129
1425.103516	2696.225342
1424.034180	2618.586426
1422.964844	2674.218750
1421.894531	2589.600098
1420.825195	2617.176270
1419.754883	2537.270752
1418.684570	2590.541504
1417.614258	2620.437744
1416.543945	2554.584717
1415.472656	2684.867432
1414.402344	2623.694580
1413.331055	2592.883789
1412.259766	2564.416992
1411.187500	2675.939941
1410.116211	2642.803223
1409.043945	2684.307129
1407.971680	2681.493164
1406.899414	2669.354736
1405.827148	2591.955566
1404.753906	2547.210693
1403.681641	2579.373779
1402.608398	2620.843750
1401.535156	2627.360352
1400.460938	2617.572998
1399.387695	2705.581055
1398.313477	2637.583740
1397.239258	2709.263428
1396.165039	2662.233887
1395.090820	2631.508057
1394.016602	2570.551514
1392.941406	2535.201172
1391.866211	2595.207031
1390.791016	2662.166504
1389.715820	2684.933838
1388.639648	2628.670166
1387.564453	2672.349365
1386.488281	2618.431152
1385.412109	2717.846924
1384.334961	2580.328857
1383.258789	2572.898438
1382.181641	2651.373047
1381.105469	2558.044922
1380.028320	2648.098145
1378.950195	2566.406250
1377.873047	2596.104736
1376.794922	2593.317871
1375.716797	2544.148438
1374.638672	2515.865234
1373.560547	2626.693359
1372.482422	2665.625488
1371.403320	2604.890137
1370.324219	2701.739502
1369.245117	2638.702637
1368.166016	2670.655273
1367.086914	2626.173340
1366.006836	2720.633057
1364.926758	2602.077393
1363.846680	2629.384033
1362.766602	2672.879883
1361.685547	2630.750732
1360.605469	2614.083496
1359.524414	2618.238525
1358.443359	2661.704834
1357.362305	2540.996094
1356.280273	2596.018799
1355.199219	2572.438477
1354.117188	2657.476318
1353.035156	2728.620850
1351.953125	2601.078369
1350.870117	2570.584961
1349.788086	2616.305176
1348.705078	2696.640625
1347.622070	2601.512207
1346.539062	2520.265625
1345.455078	2545.194092
1344.372070	2667.011719
1343.288086	2650.384033
1342.204102	2613.005859
1341.119141	2614.840576
1340.035156	2609.758301
1338.950195	2648.473145
1337.866211	2574.248047
1336.781250	2608.346680
1335.695312	2557.193359
1334.610352	2591.282471
1333.524414	2634.571045
1332.439453	2569.625000
1331.353516	2665.850342
1330.266602	2536.474121
1329.180664	2634.971924
1328.093750	2599.983398
1327.006836	2624.819336
1325.919922	2488.643311
1324.833008	2541.085693
1323.746094	2605.005127
1322.658203	2634.419189
1321.570312	2643.137207
1320.482422	2612.786621
1319.394531	2582.447021
1318.306641	2568.197998
1317.217773	2602.185059
1316.128906	2624.678467
1315.040039	2580.582764
1313.951172	2515.843262
1312.861328	2634.732422
1311.772461	2542.470703
1310.682617	2496.126953
1309.592773	2617.248535
1308.502930	2511.279297
1307.412109	2561.271484
1306.322266	2647.926758
1305.231445	2580.975830
1304.140625	2578.217773
1303.048828	2552.547363
1301.958008	2513.140381
1300.866211	2620.340332
1299.774414	2585.515381
1298.682617	2633.131592
1297.590820	2543.374268
1296.499023	2572.669678
1295.406250	2560.762695
1294.313477	2574.028076
1293.220703	2543.823730
1292.127930	2657.723877
1291.034180	2680.111328
1289.941406	2547.017334
1288.847656	2573.988281
1287.753906	2610.091553
1286.659180	2545.635986
1285.565430	2538.321533
1284.470703	2544.715576
1283.375977	2633.327148
1282.281250	2680.803955
1281.186523	2552.467285
1280.090820	2556.571045
1278.996094	2665.656006
1277.900391	2599.000977
1276.804688	2548.339600
1275.708008	2643.680664
1274.612305	2581.626465
1273.515625	2626.762939
1272.418945	2541.936279
1271.322266	2511.844727
1270.225586	2668.636963
1269.127930	2549.670654
1268.030273	2542.375000
1266.933594	2482.694580
1265.834961	2564.227539
1264.737305	2531.886963
1263.639648	2490.452393
1262.541016	2596.976074
1261.442383	2521.409668
1260.343750	2498.200928
1259.244141	2527.321045
1258.145508	2470.003418
1257.045898	2583.255615
1255.946289	2541.863525
1254.846680	2505.032471
1253.746094	2556.852051
1252.646484	2485.946289
1251.545898	2590.004883
1250.445312	2591.807129
1249.344727	2654.928711
1248.243164	2477.333252
1247.142578	2538.182129
1246.041016	2512.753662
1244.939453	2523.645508
1243.837891	2532.264404
1242.735352	2547.686035
1241.633789	2499.591553
1240.531250	2601.190430
1239.428711	2539.498779
1238.326172	2557.174561
1237.222656	2536.311523
1236.119141	2529.053223
1235.016602	2560.315430
1233.913086	2573.443359
1232.808594	2545.797363
1231.705078	2545.335938
1230.600586	2544.874268
1229.496094	2503.666016
1228.391602	2541.687988
1227.287109	2529.912598
1226.181641	2565.653320
1225.077148	2587.808594
1223.971680	2490.087891
1222.866211	2487.374756
1221.759766	2627.095703
1220.654297	2642.441895
1219.547852	2547.041748
1218.441406	2643.742676
1217.334961	2604.856689
1216.228516	2556.949219
1215.121094	2540.676514
1214.013672	2562.795166
1212.906250	2569.102539
1211.798828	2534.779053
1210.691406	2516.264893
1209.583008	2509.039307
1208.474609	2479.256592
1207.366211	2602.859619
1206.257812	2586.601318
1205.149414	2511.726807
1204.040039	2441.387939
1202.930664	2646.047119
1201.821289	2530.639893
1200.711914	2703.665283
1199.602539	2489.173096
1198.492188	2533.765625
1197.381836	2528.801514
1196.271484	2535.096436
1195.161133	2584.158203
1194.049805	2581.437988
1192.939453	2562.967285
1191.828125	2593.998535
1190.716797	2550.789062
1189.604492	2563.819336
1188.493164	2502.642334
1187.380859	2551.646729
1186.268555	2562.421631
1185.156250	2537.235352
1184.043945	2473.860352
1182.930664	2455.438477
1181.817383	2625.695801
1180.704102	2548.864746
1179.590820	2532.684326
1178.477539	2581.611084
1177.363281	2592.364014
1176.250000	2609.845215
1175.135742	2575.715576
1174.020508	2548.328125
1172.906250	2559.078857
1171.791016	2581.037598
1170.675781	2571.600098
1169.560547	2582.340332
1168.445312	2503.428223
1167.330078	2554.511230
1166.213867	2563.007812
1165.097656	2528.941650
1163.981445	2503.846191
1162.865234	2610.870605
1161.748047	2558.904053
1160.631836	2513.671143
1159.514648	2562.448486
1158.397461	2555.269287
1157.279297	2485.453125
1156.162109	2565.522705
1155.043945	2558.346680
1153.925781	2508.690918
1152.807617	2490.350098
1151.689453	2492.131592
1150.570312	2507.320557
1149.451172	2551.549561
1148.332031	2544.383301
1147.212891	2548.386719
1146.093750	2509.960693
1144.973633	2473.781006
1143.853516	2558.155762
1142.733398	2484.038818
1141.613281	2521.520752
1140.492188	2489.826904
1139.372070	2473.758789
1138.250977	2428.703857
1137.129883	2550.900635
1136.008789	2512.535889
1134.886719	2527.680908
1133.764648	2484.876953
1132.642578	2428.719482
1131.520508	2530.754639
1130.398438	2548.112061
1129.275391	2465.250000
1128.153320	2524.917480
1127.030273	2415.375732
1125.907227	2457.224365
1124.783203	2521.311279
1123.660156	2529.751221
1122.536133	2540.412354
1121.412109	2602.224609
1120.288086	2414.957520
1119.163086	2499.002930
1118.038086	2511.884521
1116.914062	2464.753906
1115.789062	2459.859863
1114.663086	2403.868896
1113.538086	2610.009766
1112.412109	2480.722412
1111.286133	2486.931152
1110.160156	2488.697510
1109.034180	2579.249512
1107.907227	2387.922363
1106.780273	2502.866943
1105.653320	2458.041260
1104.526367	2457.592529
1103.399414	2494.843750
1102.271484	2543.167236
1101.144531	2469.547607
1100.015625	2526.723633
1098.887695	2453.133789
1097.759766	2481.488770
1096.630859	2494.326904
1095.501953	2491.656494
1094.373047	2517.774170
1093.244141	2444.252441
1092.114258	2569.980713
1090.985352	2496.476074
1089.855469	2549.126709
1088.725586	2431.404785
1087.594727	2552.619141
1086.464844	2501.286621
1085.333984	2631.288574
1084.203125	2551.220215
1083.072266	2583.909424
1081.941406	2428.740234
1080.809570	2496.792480
1079.677734	2536.100586
1078.545898	2500.297119
1077.414062	2539.590088
1076.281250	2558.997314
1075.149414	2551.906982
1074.016602	2582.340088
1072.883789	2528.906494
1071.750000	2495.349121
1070.617188	2501.510742
1069.483398	2503.258789
1068.349609	2478.544678
1067.215820	2535.413574
1066.082031	2418.121826
1064.947266	2494.815918
1063.812500	2527.412109
1062.677734	2476.278564
1061.542969	2535.298096
1060.408203	2495.192871
1059.272461	2501.342041
1058.136719	2547.115479
1057.000977	2535.644043
1055.865234	2517.574463
1054.728516	2545.717285
1053.592773	2573.849609
1052.456055	2555.782715
1051.319336	2539.921387
1050.181641	2521.867188
1049.044922	2596.146240
1047.907227	2459.403564
1046.769531	2463.348145
1045.631836	2520.020508
1044.493164	2550.312256
1043.355469	2554.237549
1042.216797	2534.007324
1041.078125	2513.784180
1039.939453	2533.079102
1038.799805	2510.668701
1037.660156	2508.014404
1036.521484	2562.400879
1035.380859	2539.997070
1034.241211	2449.617432
1033.101562	2508.369629
1031.960938	2420.220703
1030.820312	2597.315186
1029.679688	2631.901855
1028.538086	2554.733643
1027.397461	2532.359375
1026.255859	2422.384033
1025.114258	2527.051270
1023.971680	2480.610352
1022.830078	2596.173340
1021.687500	2466.569092
1020.544922	2531.763184
1019.402344	2642.877441
1018.259766	2454.275391
1017.116211	2565.362793
1015.973633	2466.494873
1014.830078	2481.345947
1013.685547	2528.978516
1012.541992	2497.918945
1011.397461	2528.050781
1010.253906	2479.525879
1009.109375	2511.833984
1007.963867	2463.329346
1006.819336	2515.279053
1005.673828	2527.915527
1004.528320	2461.973633
1003.382812	2457.157227
1002.237305	2559.250977
1001.090820	2502.064697
999.944336	2442.718506
998.797852	2546.938965
997.651367	2515.948486
996.504883	2552.543213
995.357422	2515.024902
994.209961	2536.353027
993.062500	2481.422363
991.915039	2459.184570
990.766602	2552.378418
989.619141	2584.570557
988.470703	2457.830078
987.322266	2498.733887
986.172852	2506.979736
985.024414	2521.749756
983.875000	2527.812744
982.725586	2453.398193
981.576172	2531.233154
980.425781	2398.141846
979.276367	2471.610352
978.125977	2464.635986
976.975586	2624.985107
975.824219	2570.187500
974.673828	2582.748291
973.522461	2541.009277
972.371094	2555.742188
971.219727	2505.339111
970.067383	2481.001953
968.916016	2530.460449
967.763672	2510.467041
966.611328	2483.972412
965.458984	2470.501709
964.305664	2556.791748
963.153320	2458.751953
962.000000	2495.152588
960.845703	2551.046387
959.692383	2583.082275
958.539062	2504.608887
957.384766	2460.823730
956.230469	2469.034424
955.076172	2555.196777
953.920898	2498.436035
952.765625	2543.433594
951.611328	2542.965332
950.456055	2564.135742
949.299805	2483.616943
948.144531	2511.279297
946.988281	2530.280518
945.832031	2456.298828
944.675781	2568.262207
943.518555	2498.623291
942.362305	2534.900879
941.205078	2476.096924
940.047852	2419.474609
938.890625	2442.787354
937.732422	2513.599365
936.574219	2556.317383
935.416992	2527.784180
934.257812	2494.944580
933.099609	2459.959229
931.940430	2470.293457
930.782227	2532.393311
929.623047	2488.793213
928.462891	2516.366211
927.303711	2496.499756
926.143555	2552.082031
924.983398	2542.991455
923.823242	2514.511963
922.663086	2572.214111
921.501953	2507.123535
920.341797	2444.210205
919.180664	2501.893066
918.018555	2497.126465
916.857422	2421.335693
915.695312	2545.699463
914.533203	2437.654785
913.371094	2544.760742
912.208984	2527.085693
911.046875	2502.966309
909.883789	2476.705566
908.720703	2486.996338
907.557617	2559.607910
906.393555	2451.699219
905.230469	2466.285400
904.066406	2534.564209
902.902344	2495.440918
901.737305	2533.629150
900.573242	2541.748535
899.408203	2423.230225
898.243164	2465.702148
897.078125	2450.228271
895.913086	2492.679199
894.747070	2492.219238
893.581055	2577.533936
892.415039	2478.435303
891.249023	2417.957520
890.083008	2556.818115
888.916016	2429.921387
887.749023	2472.320557
886.582031	2557.543945
885.414062	2464.982910
884.247070	2483.798340
883.079102	2423.396973
881.911133	2514.987305
880.743164	2482.422363
879.574219	2424.193848
878.406250	2522.150635
877.237305	2438.270264
876.068359	2489.142090
874.898438	2477.991943
873.729492	2539.525879
872.559570	2524.095947
871.389648	2427.470703
870.219727	2463.342041
869.048828	2524.832764
867.877930	2524.365967
866.707031	2560.199219
865.536133	2440.172363
864.365234	2473.873047
863.193359	2473.415771
862.022461	2466.557129
860.850586	2542.900146
859.677734	2529.632568
858.505859	2480.116699
857.333008	2511.639893
856.160156	2536.756104
854.987305	2476.609619
853.814453	2591.222168
852.640625	2516.173828
851.466797	2502.927246
850.292969	2461.998779
849.119141	2504.130615
847.945312	2514.312012
846.770508	2467.018311
845.595703	2506.997070
844.420898	2536.322021
843.246094	2463.521240
842.070312	2548.145264
840.894531	2562.559814
839.718750	2542.949707
838.542969	2563.737061
837.367188	2522.879395
836.190430	2450.161133
835.013672	2551.690186
833.836914	2631.938965
832.660156	2491.277344
831.482422	2539.655518
830.304688	2579.523438
829.126953	2492.016113
827.949219	2485.187500
826.770508	2546.261963
825.592773	2522.453857
824.414062	2628.041504
823.235352	2551.208984
822.055664	2540.134766
820.876953	2582.062500
819.697266	2534.954346
818.517578	2551.437744
817.337891	2514.946289
816.157227	2580.148926
814.976562	2507.660156
813.795898	2579.192383
812.615234	2561.777100
811.434570	2527.433594
810.252930	2624.318848
809.071289	2592.092285
807.889648	2545.068359
806.708008	2578.439697
805.526367	2516.631836
804.343750	2592.284424
803.161133	2530.496826
801.978516	2720.255127
800.794922	2607.748291
799.612305	2482.605957
798.428711	2560.306641
797.245117	2521.814209
796.060547	2496.006104
794.876953	2470.207520
793.692383	2592.181152
792.507812	2465.069824
791.323242	2544.796631
790.138672	2531.666016
788.953125	2638.771973
787.767578	2501.201172
786.582031	2587.187256
785.396484	2622.545654
784.209961	2584.118896
783.023438	2493.022217
781.836914	2623.192139
780.650391	2631.131348
779.463867	2552.713379
778.276367	2670.164551
777.088867	2608.611572
775.901367	2576.551514
774.712891	2567.654541
773.525391	2619.783447
772.336914	2625.608398
771.148438	2570.430664
769.959961	2584.674561
768.770508	2577.886230
767.581055	2632.066650
766.392578	2541.196045
765.202148	2586.956787
764.012695	2605.386230
762.822266	2598.599609
761.631836	2591.815674
760.441406	2524.135498
759.250977	2544.661865
758.060547	2523.197021
756.869141	2531.123047
755.677734	2530.652344
754.486328	2622.493652
753.293945	2556.980225
752.102539	2571.185303
750.910156	2570.707031
749.716797	2542.975098
748.524414	2565.558594
747.332031	2544.125000
746.138672	2564.604248
744.945312	2587.170654
743.750977	2536.421631
742.557617	2605.054932
741.363281	2489.416260
740.168945	2587.338867
738.974609	2551.277832
737.780273	2548.710449
736.584961	2535.683105
735.389648	2583.321533
734.194336	2566.109619
732.999023	2519.630371
731.802734	2517.070801
730.607422	2600.210205
729.411133	2576.738037
728.213867	2486.413086
727.017578	2548.621094
725.820312	2600.362549
724.623047	2666.702393
723.425781	2517.967285
722.228516	2621.872070
721.030273	2554.596924
719.832031	2579.161377
718.633789	2561.990234
717.435547	2592.801758
716.237305	2661.141357
715.038086	2543.877441
713.838867	2568.420410
712.639648	2524.169922
711.439453	2507.027832
710.240234	2539.897949
709.040039	2631.085449
707.839844	2601.435547
706.638672	2532.230469
705.438477	2612.958008
704.237305	2562.511230
703.036133	2555.789551
701.834961	2542.827637
700.632812	2527.790039
699.431641	2575.160889
698.229492	2551.803955
697.026367	2609.549072
695.824219	2550.852051
694.621094	2591.947266
693.418945	2591.463623
692.214844	2563.969238
691.011719	2625.812256
689.808594	2579.628418
688.604492	2658.058105
687.400391	2559.979736
686.196289	2515.909424
684.991211	2596.382324
683.786133	2537.796143
682.581055	2560.143799
681.375977	2634.340088
680.170898	2557.114258
678.964844	2560.783691
677.758789	2574.817627
676.552734	2566.045898
675.346680	2538.626221
674.140625	2621.030518
672.933594	2467.244629
671.726562	2617.980469
670.518555	2547.084229
669.311523	2648.058838
668.103516	2604.093506
666.895508	2634.651611
665.687500	2646.574951
664.479492	2579.876709
663.270508	2587.668701
662.061523	2527.210449
660.852539	2572.227539
659.643555	2571.746826
658.433594	2511.325195
657.224609	2636.915283
656.014648	2533.114258
654.803711	2664.850342
653.593750	2707.725342
652.382812	2548.213867
651.171875	2667.485352
649.960938	2619.509277
648.750000	2536.465576
647.538086	2589.641113
646.326172	2504.570801
645.114258	2576.296387
643.902344	2579.939209
642.689453	2694.923828
641.476562	2647.004639
640.263672	2562.002441
639.050781	2672.804199
637.837891	2561.043945
636.624023	2564.684814
635.410156	2586.860352
634.196289	2557.547363
632.981445	2526.186279
631.767578	2616.284912
630.552734	2475.847168
629.337891	2596.786621
628.122070	2641.560791
626.907227	2715.114990
625.691406	2665.250244
624.475586	2545.495361
623.259766	2569.687744
622.042969	2659.642578
620.826172	2542.010498
619.609375	2611.390869
618.392578	2629.389648
617.175781	2600.143555
615.958008	2589.389160
614.740234	2576.585938
613.522461	2586.366455
612.303711	2583.829590
611.085938	2661.317871
609.867188	2671.076904
608.648438	2666.473877
607.429688	2651.619141
606.209961	2608.064453
604.990234	2650.625244
603.770508	2529.202148
602.550781	2606.598145
601.330078	2589.718994
600.110352	2527.780029
598.889648	2623.564941
597.668945	2588.262695
596.447266	2702.425537
595.225586	2511.556396
594.004883	2590.899902
592.782227	2541.306641
591.560547	2673.804199
590.337891	2626.259033
589.116211	2548.056885
587.892578	2596.649414
586.669922	2614.560303
585.447266	2654.946533
584.223633	2540.014893
583.000000	2619.218018
581.776367	2630.982666
580.551758	2716.265625
579.327148	2662.666016
578.102539	2556.006104
576.877930	2667.789795
575.653320	2630.555176
574.427734	2715.757812
573.202148	2601.007568
571.976562	2588.281494
570.750977	2597.991699
569.524414	2626.047852
568.297852	2625.554688
567.071289	2667.861572
565.844727	2598.078369
564.617188	2693.344727
563.390625	2580.806885
562.163086	2633.272705
560.934570	2642.958984
559.707031	2622.104492
558.478516	2609.399414
557.250000	2623.154297
556.021484	2596.210938
554.791992	2658.785156
553.563477	2642.014404
552.333984	2556.110840
551.104492	2600.359131
549.874023	2492.135254
548.644531	2617.672852
547.414062	2586.700928
546.183594	2624.814941
544.952148	2569.478760
543.721680	2501.978271
542.490234	2582.725586
541.258789	2689.833252
540.027344	2500.567139
538.794922	2554.887939
537.562500	2594.985596
536.330078	2736.495117
535.097656	2604.150146
533.865234	2561.077148
532.631836	2505.855713
531.398438	2610.788818
530.165039	2673.123047
528.931641	2593.596191
527.697266	2607.289307
526.462891	2647.308350
525.228516	2571.881104
523.993164	2547.100342
522.758789	2603.302490
521.523438	2525.901855
520.288086	2563.874268
519.052734	2539.113281
517.816406	2512.338623
516.580078	2582.650879
515.343750	2553.855713
514.107422	2603.916504
512.870117	2540.766113
511.633789	2503.911133
510.396484	2557.993896
509.158203	2575.693359
507.920898	2504.516113
506.682617	2613.091309
505.444336	2580.294922
504.206055	2608.069336
502.967773	2545.012207
501.728516	2550.586182
500.489258	2606.595215
499.250000	2589.967041
498.010742	2557.211182
496.770508	2528.500488
495.530273	2542.135498
494.290039	2533.593994
493.049805	2567.374756
491.808594	2502.416260
490.567383	2624.825684
489.326172	2569.950928
488.084961	2599.671631
486.842773	2546.835205
485.601562	2576.548828
484.359375	2539.836914
483.116211	2569.540283
481.874023	2567.043945
480.630859	2544.434082
479.387695	2600.262939
478.144531	2555.537842
476.900391	2506.809082
475.657227	2582.711914
474.413086	2646.529053
473.168945	2625.938232
471.923828	2623.433838
470.678711	2687.206543
469.434570	2732.883301
468.188477	2591.834229
466.943359	2583.315918
465.697266	2560.752686
464.452148	2598.392334
463.205078	2481.547607
461.958984	2561.308105
460.712891	2671.118164
459.465820	2524.251221
458.218750	2537.806641
456.970703	2537.327148
455.723633	2524.824951
454.475586	2572.430664
453.227539	2559.926270
451.979492	2509.375244
450.730469	2617.026123
449.481445	2566.483154
448.232422	2612.033936
446.983398	2445.442383
445.734375	2581.034668
444.484375	2526.535400
443.234375	2580.059082
441.984375	2557.574951
440.733398	2571.086426
439.483398	2582.593750
438.232422	2520.150879
436.980469	2485.705811
435.729492	2563.148926
434.477539	2544.687744
433.225586	2528.230225
431.973633	2515.772217
430.721680	2531.266357
429.468750	2460.931396
428.215820	2520.331299
426.962891	2575.718262
425.709961	2471.503418
424.456055	2469.041504
423.202148	2498.484375
421.948242	2468.107178
420.694336	2463.653564
419.439453	2600.695312
418.185547	2432.833496
416.930664	2559.868408
415.674805	2487.681152
414.419922	2489.201660
413.164062	2478.775391
411.908203	2555.939697
410.652344	2483.807617
409.395508	2491.296631
408.138672	2514.698486
406.881836	2452.560059
405.625000	2466.016602
404.367188	2557.013428
403.110352	2502.854004
401.852539	2512.317627
400.594727	2398.570312
399.335938	2459.708008
398.077148	2425.471924
396.818359	2446.859375
395.559570	2394.767090
394.300781	2481.667969
393.041016	2570.520752
391.781250	2441.035645
390.521484	2583.435791
389.260742	2469.867920
388.000977	2505.101807
386.740234	2568.085205
385.479492	2492.255615
384.217773	2565.129150
382.957031	2538.877441
381.695312	2492.819580
380.433594	2452.722900
379.170898	2485.931641
377.909180	2529.030029
376.646484	2514.689697
375.382812	2625.075684
374.120117	2604.784424
372.857422	2586.479736
371.593750	2516.739014
370.330078	2516.261475
369.065430	2513.806152
367.801758	2606.268799
366.537109	2554.370361
365.272461	2603.302734
364.006836	2590.950684
362.742188	2582.555176
361.476562	2657.136475
360.210938	2621.078369
358.944336	2715.371826
357.678711	2789.885010
356.412109	2777.510986
355.145508	2775.009766
353.878906	2806.055664
352.611328	2923.899170
351.343750	2915.453613
350.076172	3015.481445
348.808594	3030.683105
347.540039	3073.479248
346.272461	3175.390625
345.003906	3413.241211
343.734375	3227.382812
342.465820	3211.009766
341.196289	3169.038574
339.926758	3014.838867
338.657227	2909.918457
337.386719	2755.826416
336.116211	2824.185059
334.845703	2721.327637
333.575195	2707.039062
332.304688	2623.912354
331.033203	2637.179443
329.761719	2620.948486
328.490234	2632.244873
327.217773	2688.742432
325.945312	2625.348389
324.672852	2573.766602
323.400391	2590.956055
322.127930	2602.246826
320.854492	2639.060059
319.581055	2681.748535
318.307617	2618.427490
317.033203	2661.103271
315.759766	2584.075439
314.485352	2664.013916
313.209961	2643.893555
311.935547	2657.117188
310.660156	2576.226807
309.384766	2671.787354
308.109375	2645.800537
306.833984	2619.823730
305.557617	2664.384277
304.281250	2677.587891
303.004883	2710.370117
301.727539	2617.828613
300.450195	2707.380371
299.172852	2699.035645
297.895508	2608.505615
296.618164	2729.311279
295.339844	2769.870117
294.061523	2730.227295
292.783203	2856.806641
291.503906	2848.442139
290.225586	2834.217041
288.946289	2823.905518
287.666992	2829.229004
286.386719	2727.106934
285.106445	2923.854492
283.826172	2872.525146
282.545898	2838.786865
281.265625	2797.252930
279.984375	2859.172607
278.703125	2833.260742
277.421875	2885.395020
276.139648	2791.218994
274.858398	2851.141846
273.576172	2852.547852
272.293945	2963.120605
271.010742	2929.421631
269.727539	3014.604736
268.444336	3109.496582
267.161133	3140.070068
265.877930	3303.066162
264.593750	3319.960693
263.309570	3552.945557
262.025391	3953.235596
260.740234	4403.970703
259.456055	5128.878418
258.170898	5797.093750
256.884766	6653.715820
255.599609	7344.719727
254.313477	7535.795410
253.027344	7349.690918
251.741211	6590.331055
250.455078	5978.937500
249.167969	5286.182129
247.880859	4603.402344
246.593750	4204.414551
245.305664	3912.368408
244.017578	3628.198242
242.729492	3437.298828
241.441406	3221.245605
240.153320	3144.964844
238.864258	2991.122314
237.575195	2944.005127
236.286133	2877.515625
234.996094	2830.437988
233.706055	2732.982666
232.416016	2684.012451
231.125977	2633.123047
229.835938	2630.682617
228.544922	2599.190674
227.253906	2486.380615
225.962891	2571.092041
224.670898	2495.108398
223.378906	2436.571533
222.086914	2430.300781
220.794922	2435.639648
219.501953	2429.371094
218.209961	2457.914062
216.916992	2409.106934
215.623047	2451.174316
214.330078	2377.261475
213.036133	2336.227051
211.742188	2343.508057
210.448242	2370.102295
209.153320	2286.604736
207.858398	2334.439209
206.563477	2345.575439
205.268555	2368.288330
203.972656	2321.520264
202.676758	2297.922852
201.380859	2395.864014
200.084961	2275.827881
198.788086	2342.882324
197.492188	2319.298584
196.194336	2230.186768
194.897461	2210.487793
193.600586	2237.039795
192.302734	2313.669434
191.004883	2230.404541
189.706055	2270.417236
188.408203	2308.489258
187.109375	2298.422119
185.809570	2182.505127
184.510742	2239.814209
183.210938	2314.415771
181.912109	2277.425781
180.611328	2244.295898
179.311523	2301.548828
178.010742	2233.823730
176.709961	2246.849609
175.409180	2209.907471
174.108398	2276.728760
172.806641	2222.506348
171.504883	2287.379150
170.203125	2158.288086
168.900391	2278.822510
167.598633	2215.043701
166.295898	2314.410889
164.993164	2336.991699
163.689453	2250.217773
162.385742	2263.211914
161.082031	2220.590332
159.778320	2245.088379
158.474609	2227.405762
157.169922	2171.399658
155.865234	2264.873535
154.559570	2247.197021
153.254883	2298.481445
151.949219	2298.040283
150.643555	2207.609863
149.337891	2243.557617
148.031250	2338.823486
146.724609	2210.165771
145.417969	2225.046875
144.111328	2199.752686
142.803711	2191.680420
141.497070	2231.413574
140.188477	2232.896729
138.880859	2077.647705
137.572266	2176.620117
136.264648	2143.721436
134.955078	2175.783936
133.646484	2165.816406
132.336914	2165.400146
131.028320	2098.163574
129.717773	2135.936035
128.408203	2158.426758
127.097656	2091.229980
125.787109	1989.720337
124.476562	1977.893921
123.166016	2023.280640
121.854492	2011.452026
120.542969	1921.472900
119.231445	1902.044800
117.918945	1745.428833
116.607422	1668.888306
115.294922	1521.901001
113.981445	1367.352661
112.668945	1203.343506
111.355469	1012.746216
110.041992	845.061646
108.728516	648.897705
107.414062	561.255127
106.099609	429.895752
104.785156	277.666840
103.470703	241.485626
102.155273	182.505188
100.839844	121.646706
99.524414	121.623291
