#Wave		#Intensity
1998.884766	1537.029053
1997.916992	1575.777588
1996.949219	1534.178345
1995.981445	1557.151978
1995.012695	1497.497070
1994.044922	1461.095947
1993.076172	1509.880005
1992.107422	1579.291504
1991.138672	1542.894897
1990.168945	1576.161255
1989.200195	1503.669067
1988.230469	1438.938354
1987.260742	1467.048584
1986.291016	1477.104126
1985.321289	1554.168457
1984.350586	1564.205200
1983.380859	1525.284912
1982.410156	1525.018921
1981.439453	1483.543335
1980.468750	1532.212402
1979.497070	1501.048706
1978.526367	1503.361206
1977.554688	1528.836914
1976.583984	1464.236450
1975.612305	1608.063477
1974.639648	1450.863281
1973.667969	1507.194214
1972.696289	1506.931152
1971.723633	1511.810425
1970.750977	1529.541138
1969.778320	1490.721069
1968.805664	1500.739990
1967.832031	1441.383911
1966.859375	1549.024536
1965.885742	1559.027832
1964.912109	1533.076050
1963.938477	1571.321167
1962.964844	1535.107788
1961.991211	1560.506104
1961.016602	1557.667358
1960.041992	1506.080933
1959.067383	1534.036011
1958.092773	1572.240601
1957.118164	1582.223511
1956.142578	1620.406250
1955.167969	1573.980469
1954.192383	1532.696899
1953.216797	1601.619141
1952.241211	1555.220825
1951.264648	1572.880981
1950.289062	1475.278809
1949.312500	1574.892334
1948.335938	1508.047974
1947.359375	1500.104736
1946.382812	1563.829102
1945.406250	1530.288696
1944.428711	1524.904175
1943.451172	1545.102661
1942.473633	1601.101318
1941.496094	1503.647095
1940.518555	1620.995972
1939.541016	1546.579102
1938.562500	1571.867554
1937.583984	1579.259033
1936.605469	1543.213135
1935.626953	1514.843384
1934.648438	1547.781738
1933.668945	1598.584106
1932.690430	1549.793823
1931.710938	1603.130615
1930.731445	1523.728760
1929.751953	1587.258789
1928.771484	1584.429810
1927.791992	1538.235229
1926.811523	1571.123047
1925.831055	1499.446045
1924.850586	1478.786743
1923.870117	1603.438110
1922.888672	1570.024048
1921.908203	1511.138550
1920.926758	1493.039307
1919.945312	1615.053345
1918.963867	1546.002930
1917.982422	1589.023071
1917.000000	1545.461914
1916.018555	1535.008911
1915.036133	1621.276245
1914.053711	1572.642700
1913.071289	1590.177368
1912.087891	1610.249756
1911.105469	1538.752930
1910.122070	1513.054077
1909.138672	1510.246704
1908.155273	1560.823486
1907.171875	1585.966309
1906.187500	1562.818115
1905.204102	1557.463013
1904.219727	1521.626343
1903.235352	1506.120972
1902.250977	1574.420654
1901.266602	1553.833374
1900.281250	1619.562256
1899.296875	1517.756348
1898.311523	1517.490601
1897.326172	1593.339722
1896.340820	1552.473022
1895.354492	1658.724731
1894.369141	1511.355835
1893.382812	1582.081909
1892.396484	1551.385376
1891.410156	1584.062012
1890.423828	1609.125000
1889.436523	1636.712769
1888.450195	1583.229370
1887.462891	1582.951904
1886.475586	1557.351685
1885.488281	1552.015137
1884.500977	1612.496460
1883.512695	1561.594849
1882.525391	1561.321045
1881.537109	1588.878052
1880.548828	1611.366089
1879.560547	1626.258545
1878.571289	1610.801025
1877.583008	1514.443726
1876.593750	1597.596924
1875.604492	1551.823608
1874.615234	1554.078369
1873.625977	1584.124023
1872.635742	1573.741943
1871.646484	1618.927124
1870.656250	1563.089111
1869.666016	1641.081909
1868.675781	1580.210938
1867.684570	1499.170288
1866.694336	1579.656494
1865.703125	1546.580688
1864.711914	1566.489624
1863.720703	1538.471802
1862.729492	1591.156250
1861.738281	1568.186279
1860.746094	1598.160156
1859.753906	1643.245361
1858.762695	1587.519775
1857.769531	1622.513062
1856.777344	1614.671387
1855.785156	1611.869385
1854.791992	1604.032104
1853.798828	1636.480103
1852.805664	1595.917236
1851.812500	1565.435791
1850.819336	1600.389526
1849.825195	1615.203857
1848.831055	1647.621216
1847.837891	1544.216431
1846.842773	1589.207397
1845.848633	1679.436890
1844.854492	1631.381958
1843.859375	1600.936401
1842.864258	1590.604004
1841.869141	1592.836914
1840.874023	1620.188232
1839.878906	1589.765869
1838.883789	1617.107910
1837.887695	1589.207275
1836.891602	1601.478760
1835.895508	1571.080811
1834.899414	1600.916016
1833.902344	1635.758301
1832.906250	1680.621948
1831.909180	1547.405151
1830.912109	1562.178223
1829.915039	1602.016724
1828.917969	1621.788208
1827.919922	1661.602051
1826.922852	1601.171997
1825.924805	1478.130493
1824.926758	1542.997192
1823.928711	1600.327637
1822.929688	1702.709595
1821.931641	1637.318115
1820.932617	1644.539429
1819.933594	1614.218262
1818.934570	1686.498901
1817.935547	1606.145142
1816.935547	1650.886841
1815.936523	1635.591064
1814.936523	1730.320923
1813.936523	1620.015503
1812.936523	1689.718872
1811.935547	1619.445557
1810.935547	1629.155396
1809.934570	1583.900024
1808.933594	1621.088623
1807.932617	1653.269409
1806.931641	1647.984619
1805.929688	1637.708496
1804.928711	1604.971436
1803.926758	1582.228271
1802.924805	1631.853516
1801.922852	1604.124023
1800.919922	1678.671021
1799.917969	1586.102173
1798.915039	1610.757324
1797.912109	1645.375610
1796.909180	1722.355103
1795.906250	1654.764771
1794.903320	1599.656494
1793.899414	1569.479858
1792.895508	1661.363037
1791.891602	1648.618652
1790.887695	1635.878662
1789.883789	1615.674683
1788.878906	1640.280518
1787.875000	1617.594116
1786.870117	1709.371460
1785.865234	1629.462891
1784.859375	1649.074219
1783.854492	1683.599609
1782.848633	1613.683350
1781.843750	1727.753906
1780.837891	1667.796509
1779.832031	1617.800537
1778.825195	1577.760864
1777.819336	1597.356567
1776.812500	1693.942749
1775.805664	1591.826782
1774.798828	1678.448120
1773.791992	1660.774902
1772.784180	1620.769531
1771.777344	1603.112671
1770.769531	1677.264893
1769.761719	1639.758301
1768.753906	1612.186035
1767.746094	1708.615845
1766.737305	1678.561523
1765.729492	1670.828613
1764.720703	1606.092041
1763.711914	1595.896362
1762.702148	1610.480835
1761.693359	1654.786743
1760.683594	1756.043213
1759.674805	1659.155762
1758.665039	1599.441040
1757.654297	1750.163086
1756.644531	1621.152100
1755.634766	1591.170776
1754.624023	1684.908447
1753.613281	1677.189941
1752.602539	1647.214355
1751.591797	1614.776489
1750.580078	1701.026245
1749.569336	1722.973877
1748.557617	1626.279419
1747.545898	1638.347900
1746.534180	1638.058594
1745.522461	1635.299194
1744.509766	1635.010498
1743.497070	1600.150757
1742.484375	1701.094360
1741.471680	1661.298096
1740.458984	1698.025635
1739.446289	1680.452393
1738.432617	1672.754028
1737.418945	1586.122314
1736.405273	1662.297974
1735.391602	1694.060791
1734.377930	1659.245361
1733.363281	1651.557251
1732.348633	1690.698608
1731.334961	1673.151001
1730.319336	1658.073120
1729.304688	1677.486328
1728.290039	1635.321777
1727.274414	1669.506348
1726.258789	1654.439575
1725.243164	1636.916504
1724.227539	1680.926880
1723.211914	1702.775757
1722.195312	1640.969116
1721.178711	1702.173828
1720.163086	1706.791626
1719.145508	1674.523926
1718.128906	1620.141235
1717.112305	1676.390015
1716.094727	1658.890259
1715.077148	1724.940796
1714.059570	1697.611572
1713.041992	1751.350220
1712.024414	1716.658325
1711.005859	1777.740723
1709.987305	1612.940796
1708.968750	1659.292358
1707.950195	1666.361328
1706.931641	1742.131470
1705.912109	1646.145630
1704.893555	1645.854370
1703.874023	1733.849854
1702.854492	1664.887817
1701.833984	1733.236328
1700.814453	1693.711914
1699.793945	1791.438965
1698.774414	1722.515381
1697.753906	1763.857178
1696.732422	1778.241211
1695.711914	1682.418091
1694.691406	1669.877808
1693.669922	1694.062866
1692.648438	1776.982544
1691.626953	1725.276733
1690.605469	1776.353394
1689.583008	1793.163208
1688.560547	1687.671997
1687.539062	1772.964600
1686.516602	1762.870483
1685.493164	1735.667603
1684.470703	1696.253540
1683.447266	1742.384155
1682.424805	1739.632202
1681.401367	1744.209839
1680.377930	1792.749634
1679.353516	1733.823975
1678.330078	1765.257202
1677.305664	1786.914795
1676.281250	1693.851318
1675.256836	1739.916382
1674.232422	1781.085449
1673.207031	1756.375732
1672.182617	1729.235718
1671.157227	1785.015869
1670.131836	1777.385132
1669.106445	1825.823730
1668.080078	1818.188354
1667.054688	1717.956543
1666.028320	1785.870850
1665.001953	1722.219482
1663.975586	1831.512573
1662.949219	1814.142334
1661.921875	1743.215576
1660.895508	1840.275513
1659.868164	1803.442261
1658.840820	1839.622925
1657.813477	1822.266113
1656.785156	1819.510498
1655.757812	1819.187744
1654.729492	1865.066162
1653.701172	1806.386475
1652.672852	1796.342896
1651.643555	1796.024292
1650.615234	1802.995361
1649.585938	1929.008545
1648.556641	1853.365723
1647.527344	1799.607178
1646.498047	1855.136230
1645.467773	1922.784302
1644.438477	1856.905151
1643.408203	1817.745239
1642.377930	1839.260864
1641.346680	1931.123779
1640.316406	1891.971313
1639.285156	1847.982300
1638.254883	1913.122314
1637.223633	1895.812500
1636.192383	1905.171509
1635.160156	1892.715942
1634.128906	1935.994263
1633.096680	1882.353516
1632.064453	1942.573242
1631.032227	1898.637085
1630.000000	2036.314087
1628.966797	1917.329712
1627.934570	1936.352661
1626.901367	2040.069214
1625.868164	2020.350220
1624.833984	2019.991333
1623.800781	1954.327026
1622.766602	2036.201660
1621.733398	2139.807861
1620.699219	2059.652588
1619.665039	2056.869629
1618.629883	2208.748047
1617.595703	2201.107178
1616.560547	2123.413086
1615.525391	2164.095703
1614.490234	2253.060547
1613.455078	2122.281006
1612.418945	2119.489746
1611.382812	2121.526611
1610.347656	2227.327637
1609.311523	2147.312256
1608.274414	2156.579590
1607.238281	2284.024170
1606.201172	2201.629639
1605.164062	2186.772217
1604.126953	2263.521484
1603.089844	2164.303223
1602.052734	2139.821289
1601.014648	2163.533447
1599.977539	2141.468994
1598.939453	2051.976318
1597.901367	2155.155029
1596.862305	2229.406250
1595.824219	2123.095459
1594.785156	2151.598389
1593.746094	2170.465820
1592.707031	2100.309814
1591.667969	2200.963867
1590.627930	2094.752441
1589.588867	2111.211426
1588.548828	2180.555908
1587.508789	2177.763916
1586.468750	2136.520508
1585.427734	2174.585938
1584.387695	2164.589111
1583.346680	2123.369629
1582.305664	2159.015381
1581.264648	2127.416016
1580.222656	2057.416260
1579.181641	2035.447388
1578.139648	2032.685059
1577.097656	2128.300537
1576.055664	2082.340332
1575.013672	2096.360840
1573.970703	2093.589355
1572.928711	2102.807373
1571.885742	2100.035400
1570.842773	1994.198975
1569.799805	2128.044678
1568.755859	2039.012817
1567.711914	2057.814209
1566.668945	2023.915283
1565.625000	2069.054688
1564.580078	2011.222412
1563.536133	2030.015137
1562.491211	2034.440308
1561.447266	2012.540405
1560.402344	2012.181641
1559.357422	2042.921265
1558.311523	1961.237549
1557.266602	2025.453735
1556.220703	2051.392578
1555.174805	1912.379272
1554.128906	1952.669189
1553.083008	1961.879517
1552.036133	1994.978394
1550.989258	1999.400146
1549.943359	1994.266846
1548.896484	2027.342041
1547.848633	1900.443481
1546.801758	1885.782104
1545.753906	1961.818115
1544.706055	1947.150879
1543.658203	1908.630981
1542.610352	2065.724365
1541.562500	1907.949951
1540.513672	1967.222290
1539.464844	1957.334961
1538.416016	1930.765381
1537.367188	1994.768188
1536.318359	1951.521606
1535.268555	2041.703979
1534.219727	1941.297241
1533.169922	2012.396851
1532.119141	1992.988770
1531.069336	1942.638550
1530.019531	2006.558716
1528.968750	1939.565186
1527.917969	1939.218872
1526.867188	1979.315308
1525.816406	1902.848022
1524.764648	1945.314697
1523.713867	1904.546143
1522.662109	2020.693115
1521.610352	1918.127075
1520.557617	1901.149414
1519.505859	1948.330078
1518.453125	1995.493896
1517.400391	1976.136108
1516.347656	1942.536743
1515.294922	1994.424561
1514.242188	1872.999756
1513.188477	1943.869141
1512.134766	1981.490479
1511.081055	2040.451904
1510.027344	2013.993042
1508.973633	1975.684814
1507.918945	1930.276123
1506.865234	1944.156616
1505.810547	2000.701050
1504.755859	1952.941895
1503.700195	1966.810791
1502.645508	1945.136108
1501.589844	2011.114868
1500.534180	2048.649414
1499.478516	1847.006714
1498.422852	1993.463501
1497.366211	1931.562134
1496.310547	1909.916504
1495.253906	1919.040039
1494.197266	1956.550171
1493.139648	1871.045166
1492.083008	2052.815186
1491.025391	1908.208984
1489.967773	1945.694092
1488.910156	1971.346924
1487.852539	1966.267578
1486.794922	1989.544556
1485.736328	1937.214600
1484.677734	1929.781738
1483.619141	1901.097168
1482.560547	1943.258301
1481.501953	1985.404297
1480.442383	1935.481689
1479.382812	2015.372559
1478.323242	1875.801392
1477.263672	1920.288086
1476.204102	1957.682739
1475.143555	1933.750000
1474.083008	1989.991089
1473.023438	2013.208740
1471.961914	1993.992554
1470.901367	1965.356934
1469.840820	1965.005005
1468.779297	1945.807495
1467.717773	1926.616699
1466.656250	1959.239624
1465.593750	1989.496338
1464.532227	2055.052246
1463.469727	2014.673096
1462.407227	1903.713257
1461.344727	1995.129272
1460.282227	2062.989258
1459.219727	1888.578735
1458.156250	1982.299561
1457.092773	1934.923096
1456.029297	1918.121948
1454.965820	1861.372925
1453.901367	1983.228760
1452.837891	1900.645020
1451.773438	1921.444946
1450.708984	1951.631470
1449.643555	1970.066528
1448.579102	2002.580933
1447.513672	1981.096558
1446.449219	2001.862915
1445.382812	1978.039673
1444.317383	1996.453003
1443.251953	1925.727417
1442.185547	2068.437256
1441.119141	1964.897461
1440.052734	1983.299561
1438.986328	1931.377930
1437.919922	1980.244629
1436.852539	2052.524414
1435.786133	1963.135742
1434.718750	1981.521240
1433.650391	2049.078125
1432.583008	2046.369019
1431.514648	1985.136719
1430.447266	1982.439941
1429.378906	2024.206421
1428.310547	1991.087280
1427.241211	2021.140625
1426.172852	1995.050293
1425.103516	1978.323120
1424.034180	2073.826904
1422.964844	2000.988892
1421.894531	2094.116943
1420.825195	2044.669067
1419.754883	1999.911377
1418.684570	2004.224121
1417.614258	2055.245361
1416.543945	2008.174438
1415.472656	2059.176514
1414.402344	2068.143799
1413.331055	2098.112061
1412.259766	1988.064819
1411.187500	2011.037598
1410.116211	2092.316406
1409.043945	2040.633179
1407.971680	2110.218506
1406.899414	2072.538330
1405.827148	2060.511475
1404.753906	2104.420166
1403.681641	2104.041992
1402.608398	2040.763672
1401.535156	2098.627441
1400.460938	2009.755737
1399.387695	2044.320312
1398.313477	2130.087402
1397.239258	2071.515869
1396.165039	2138.630127
1395.090820	2094.038330
1394.016602	2012.241577
1392.941406	2095.611084
1391.866211	2118.489014
1390.791016	2078.582275
1389.715820	2103.779297
1388.639648	2147.560791
1387.564453	2114.641602
1386.488281	2211.842529
1385.412109	2051.161377
1384.334961	2078.662842
1383.258789	2085.255127
1382.181641	2054.697998
1381.105469	2093.790039
1380.028320	2183.926758
1378.950195	2211.378906
1377.873047	2122.820312
1376.794922	2161.871582
1375.716797	2170.759277
1374.638672	2110.080566
1373.560547	2123.610840
1372.482422	2195.084473
1371.403320	2203.959473
1370.324219	2138.683838
1369.245117	2193.899414
1368.166016	2181.923096
1367.086914	2288.059326
1366.006836	2206.607178
1364.926758	2280.290283
1363.846680	2247.475342
1362.766602	2203.101074
1361.685547	2223.528076
1360.605469	2317.975098
1359.524414	2285.176514
1358.443359	2224.639404
1357.362305	2228.862793
1356.280273	2265.448242
1355.199219	2283.530273
1354.117188	2220.725830
1353.035156	2245.740479
1351.953125	2256.885986
1350.870117	2307.290527
1349.788086	2207.579834
1348.705078	2251.048584
1347.622070	2280.651367
1346.539062	2291.780029
1345.455078	2282.136719
1344.372070	2320.946045
1343.288086	2230.566895
1342.204102	2227.858398
1341.119141	2368.114014
1340.035156	2204.000732
1338.950195	2272.754150
1337.866211	2210.119873
1336.781250	2232.763184
1335.695312	2266.917236
1334.610352	2314.878906
1333.524414	2268.402588
1332.439453	2231.152832
1331.353516	2092.623535
1330.266602	2172.805420
1329.180664	2239.150879
1328.093750	2261.755615
1327.006836	2245.244141
1325.919922	2233.338867
1324.833008	2260.531494
1323.746094	2221.036865
1322.658203	2211.440918
1321.570312	2261.606201
1320.482422	2183.067139
1319.394531	2210.243652
1318.306641	2363.752930
1317.217773	2211.742676
1316.128906	2259.565674
1315.040039	2187.985107
1313.951172	2203.658447
1312.861328	2203.260498
1311.772461	2168.442871
1310.682617	2216.230225
1309.592773	2192.891846
1308.502930	2190.202393
1307.412109	2249.424561
1306.322266	2109.171143
1305.231445	2308.208252
1304.140625	2186.328613
1303.048828	2181.351074
1301.958008	2128.265869
1300.866211	2088.942627
1299.774414	2242.001465
1298.682617	2140.850342
1297.590820	2124.438721
1296.499023	2178.987305
1295.406250	2171.728027
1294.313477	2173.623535
1293.220703	2232.708740
1292.127930	2177.412354
1291.034180	2078.687012
1289.941406	2208.634277
1288.847656	2201.377197
1287.753906	2173.552734
1286.659180	2113.746338
1285.565430	2115.648682
1284.470703	2071.864502
1283.375977	2096.612549
1282.281250	2057.414307
1281.186523	2082.155762
1280.090820	2109.171143
1278.996094	2099.660645
1277.900391	2092.435303
1276.804688	2098.901123
1275.708008	2116.769287
1274.612305	2139.192139
1273.515625	2184.408691
1272.418945	2099.662109
1271.322266	2133.472412
1270.225586	2069.276123
1269.127930	2057.509033
1268.030273	2091.308350
1266.933594	2068.152832
1265.834961	2060.946533
1264.737305	2087.895996
1263.639648	2126.218018
1262.541016	2121.281006
1261.442383	2002.563599
1260.343750	2090.935059
1259.244141	2090.556396
1258.145508	2001.476074
1257.045898	2014.757568
1255.946289	2116.703857
1254.846680	2016.301025
1253.746094	2090.936768
1252.646484	2095.102783
1251.545898	2012.933594
1250.445312	1973.953125
1249.344727	2021.288818
1248.243164	2048.170898
1247.142578	2025.097046
1246.041016	1986.142212
1244.939453	2169.608887
1243.837891	1994.498657
1242.735352	1994.137207
1241.633789	2104.919189
1240.531250	2102.269775
1239.428711	2061.075439
1238.326172	1985.890869
1237.222656	1953.798584
1236.119141	2055.422363
1235.016602	2066.378418
1233.913086	2016.166016
1232.808594	1999.945923
1231.705078	2015.434937
1230.600586	1999.220581
1229.496094	2064.505615
1228.391602	2021.128540
1227.287109	2020.761963
1226.181641	1979.670776
1225.077148	2001.932373
1223.971680	2001.569214
1222.866211	1983.116089
1221.759766	1935.278687
1220.654297	2000.479980
1219.547852	2004.637085
1218.441406	1941.004272
1217.334961	1915.800903
1216.228516	1976.440430
1215.121094	1964.789917
1214.013672	1968.949219
1212.906250	1948.273804
1211.798828	1945.662964
1210.691406	2035.579346
1209.583008	1929.162354
1208.474609	1933.323975
1207.366211	1973.572144
1206.257812	2054.397461
1205.149414	1993.147705
1204.040039	1920.648682
1202.930664	2001.439331
1201.821289	1919.951172
1200.711914	1989.447144
1199.602539	1995.843628
1198.492188	2033.769165
1197.381836	1882.527344
1196.271484	1873.179688
1195.161133	1938.118530
1194.049805	1937.766479
1192.939453	1962.166382
1191.828125	1937.062256
1190.716797	1974.949585
1189.604492	1979.088623
1188.493164	1927.012207
1187.380859	1980.617432
1186.268555	1966.770996
1185.156250	1995.628784
1184.043945	1957.068359
1182.930664	1965.698608
1181.817383	1972.079590
1180.704102	1956.001099
1179.590820	1960.136108
1178.477539	2049.574707
1177.363281	1984.112427
1176.250000	1990.483765
1175.135742	1927.299438
1174.020508	1976.300293
1172.906250	1935.569702
1171.791016	2002.490601
1170.675781	1988.674194
1169.560547	1945.721680
1168.445312	2037.257202
1167.330078	1938.291382
1166.213867	1944.659790
1165.097656	1955.505859
1163.981445	1856.608643
1162.865234	1945.837524
1161.748047	1898.469482
1160.631836	1893.647217
1159.514648	2009.675659
1158.397461	1930.995972
1157.279297	1932.881592
1156.162109	1928.056274
1155.043945	1882.978882
1153.925781	1922.882446
1152.807617	1868.880249
1151.689453	1953.473633
1150.570312	1966.526001
1149.451172	1794.128174
1148.332031	1930.067749
1147.212891	1914.081909
1146.093750	1980.725098
1144.973633	1891.058105
1143.853516	1892.945923
1142.733398	1919.383179
1141.613281	1867.710449
1140.492188	1822.749634
1139.372070	1800.111206
1138.250977	1911.293945
1137.129883	1884.187988
1136.008789	1783.521484
1134.886719	1801.028442
1133.764648	1929.958252
1132.642578	1869.445557
1131.520508	1813.410400
1130.398438	1868.764038
1129.275391	1817.203125
1128.153320	1872.535767
1127.030273	1780.922119
1125.907227	1918.593750
1124.783203	1902.666504
1123.660156	1833.346436
1122.536133	1864.155518
1121.412109	1828.229614
1120.288086	1819.001221
1119.163086	1852.019165
1118.038086	1891.693604
1116.914062	1851.343506
1115.789062	1826.562622
1114.663086	1852.889648
1113.538086	1894.755981
1112.412109	1916.619019
1111.286133	1789.702271
1110.160156	1833.777100
1109.034180	1835.662109
1107.907227	1830.888550
1106.780273	1866.056030
1105.653320	1867.933838
1104.526367	1809.923706
1103.399414	1811.810913
1102.271484	1802.611206
1101.144531	1877.654297
1100.015625	1901.692017
1098.887695	1826.000122
1097.759766	1850.038452
1096.630859	1765.522583
1095.501953	1798.422241
1094.373047	1855.668213
1093.244141	1842.045288
1092.114258	1781.941772
1090.985352	1876.783325
1089.855469	1900.781128
1088.725586	1909.283325
1087.594727	1891.238647
1086.464844	1842.238525
1085.333984	1810.945557
1084.203125	1784.085571
1083.072266	1814.704468
1081.941406	1896.141113
1080.809570	1862.651367
1079.677734	1800.454712
1078.545898	1857.552979
1077.414062	1773.296509
1076.281250	1830.378540
1075.149414	1845.496704
1074.016602	1827.502197
1072.883789	1758.759521
1071.750000	1879.785645
1070.617188	1786.793335
1069.483398	1848.220947
1068.349609	1786.139771
1067.215820	1843.135498
1066.082031	1820.755371
1064.947266	1796.179321
1063.812500	1875.176636
1062.677734	1826.365479
1061.542969	1865.679810
1060.408203	1860.933838
1059.272461	1748.297119
1058.136719	1761.186157
1057.000977	1774.070312
1055.865234	1830.963257
1054.728516	1843.829712
1053.592773	1863.291138
1052.456055	1768.372925
1051.319336	1792.238892
1050.181641	1871.062622
1049.044922	1839.944458
1047.907227	1874.773315
1046.769531	1804.111450
1045.631836	1801.583984
1044.493164	1807.844116
1043.355469	1836.064209
1042.216797	1778.635864
1041.078125	1835.391724
1039.939453	1799.934814
1038.799805	1768.880127
1037.660156	1816.829346
1036.521484	1851.597900
1035.380859	1752.554077
1034.241211	1857.498535
1033.101562	1789.186646
1031.960938	1872.163452
1030.820312	1784.147339
1029.679688	1799.160278
1028.538086	1831.695923
1027.397461	1859.838257
1026.255859	1767.508057
1025.114258	1843.827759
1023.971680	1804.080200
1022.830078	1840.962769
1021.687500	1823.116333
1020.544922	1855.605225
1019.402344	1829.011230
1018.259766	1813.363892
1017.116211	1856.771606
1015.973633	1762.406860
1014.830078	1840.787109
1013.685547	1860.121704
1012.541992	1781.105835
1011.397461	1780.779175
1010.253906	1843.805908
1009.109375	1793.230957
1007.963867	1845.313232
1006.819336	1844.974609
1005.673828	1770.414062
1004.528320	1859.575806
1003.382812	1798.132935
1002.237305	1878.529419
1001.090820	1804.017090
999.944336	1818.953003
998.797852	1825.160889
997.651367	1809.564331
996.504883	1824.490723
995.357422	1708.647705
994.209961	1845.610840
993.062500	1808.235718
991.915039	1773.052490
990.766602	1790.149292
989.619141	1881.271240
988.470703	1835.208740
987.322266	1813.105713
986.172852	1873.706177
985.024414	1845.076538
983.875000	1768.598755
982.725586	1774.798706
981.576172	1763.599731
980.425781	1850.243652
979.276367	1791.211060
978.125977	1875.644409
976.975586	1803.590698
975.824219	1874.955078
974.673828	1831.166382
973.522461	1793.909180
972.371094	1826.150513
971.219727	1795.420654
970.067383	1816.796631
968.916016	1877.228394
967.763672	1800.939941
966.611328	1835.319336
965.458984	1782.925659
964.305664	1815.126953
963.153320	1840.811646
962.000000	1833.969604
960.845703	1835.799683
959.692383	1839.796021
958.539062	1789.625366
957.384766	1856.448975
956.230469	1762.977173
955.076172	1814.622925
953.920898	1825.114136
952.765625	1811.790527
951.611328	1800.635986
950.456055	1878.202393
949.299805	1789.156128
948.144531	1845.065552
946.988281	1790.660156
945.832031	1794.655029
944.675781	1850.532349
943.518555	1811.285767
942.362305	1940.614746
941.205078	1840.867798
940.047852	1771.401001
938.890625	1786.193726
937.732422	1833.372681
936.574219	1822.239746
935.416992	1826.221436
934.257812	1782.719971
933.099609	1812.601562
931.940430	1831.684814
930.782227	1893.902222
929.623047	1790.033325
928.462891	1834.985107
927.303711	1862.673340
926.143555	1797.665894
924.983398	1851.211548
923.823242	1818.550171
922.663086	1884.997803
921.501953	1794.187134
920.341797	1819.698242
919.180664	1843.046875
918.018555	1816.874756
916.857422	1844.519653
915.695312	1846.331421
914.533203	1787.900391
913.371094	1847.801758
912.208984	1899.078003
911.046875	1821.316528
909.883789	1842.479736
908.720703	1915.223633
907.557617	1760.133423
906.393555	1798.485840
905.230469	1877.642334
904.066406	1795.674438
902.902344	1812.523438
901.737305	1848.690430
900.573242	1788.240356
899.408203	1798.642090
898.243164	1757.537109
897.078125	1812.997192
895.913086	1799.791626
894.747070	1838.065186
893.581055	1809.849121
892.415039	1830.954834
891.249023	1882.062622
890.083008	1806.703735
888.916016	1917.795166
887.749023	1857.454102
886.582031	1786.425171
885.414062	1886.750488
884.247070	1820.024658
883.079102	1843.237427
881.911133	1840.756592
880.743164	1844.696655
879.574219	1837.937012
878.406250	1878.242798
877.237305	1839.396851
876.068359	1809.118774
874.898438	1793.818237
873.729492	1876.855103
872.559570	1797.429810
871.389648	1822.739990
870.219727	1903.588745
869.048828	1796.433472
867.877930	1832.407837
866.707031	1842.745483
865.536133	1833.865356
864.365234	1786.567505
863.193359	1843.857788
862.022461	1798.709106
860.850586	1826.109497
859.677734	1812.974365
858.505859	1887.277100
857.333008	1878.399658
856.160156	1805.573486
854.987305	1890.492798
853.814453	1885.881226
852.640625	1810.963257
851.466797	1872.402710
850.292969	1908.262085
849.119141	1878.097900
847.945312	1830.913086
846.770508	1926.360229
845.595703	1838.748291
844.420898	1827.769043
843.246094	1863.596436
842.070312	1888.775513
840.894531	1852.273560
839.718750	1783.891968
838.542969	1877.097656
837.367188	1895.879028
836.190430	1876.402710
835.013672	1897.301636
833.836914	1835.347168
832.660156	1960.314575
831.482422	1834.667480
830.304688	1830.081543
829.126953	1889.177368
827.949219	1946.129028
826.770508	1852.405518
825.592773	1962.380005
824.414062	1938.684326
823.235352	1887.428223
822.055664	1795.905029
820.876953	1920.647461
819.697266	1960.562622
818.517578	1837.289429
817.337891	1870.848877
816.157227	1902.277344
814.976562	1906.160645
813.795898	1844.397949
812.615234	1899.102417
811.434570	1962.253784
810.252930	1853.954224
809.071289	1876.886353
807.889648	1901.925659
806.708008	1950.222778
805.526367	1875.842407
804.343750	1869.151245
803.161133	1904.743164
801.978516	1972.026367
800.794922	1925.169067
799.612305	1924.812012
798.428711	1899.105347
797.245117	1839.614990
796.060547	1908.959106
794.876953	1902.270996
793.692383	1920.916016
792.507812	1893.123047
791.323242	1947.634644
790.138672	1919.846802
788.953125	1913.162354
787.767578	1952.877075
786.582031	1950.406006
785.396484	1897.340088
784.209961	1918.065430
783.023438	2010.433716
781.836914	1951.064941
780.650391	1876.971924
779.463867	1981.933350
778.276367	1859.428467
777.088867	1945.405151
775.901367	1919.783569
774.712891	1957.310303
773.525391	1872.776978
772.336914	1901.883057
771.148438	1899.426270
769.959961	1886.454834
768.770508	1923.952637
767.581055	1923.595093
766.392578	1916.931885
765.202148	1887.154541
764.012695	1901.511597
762.822266	1913.762573
761.631836	1953.313232
760.441406	1959.250000
759.250977	1921.093750
758.060547	1941.728271
756.869141	1893.095337
755.677734	1982.973999
754.486328	1913.371338
753.293945	1921.406006
752.102539	1908.465332
750.910156	1868.270752
749.716797	1943.394897
748.524414	1886.440186
747.332031	1932.193726
746.138672	1940.215332
744.945312	1916.810669
743.750977	1895.509277
742.557617	1974.732178
741.363281	1942.959106
740.168945	2001.210449
738.974609	2038.510620
737.780273	1872.820801
736.584961	1943.605225
735.389648	1945.335205
734.194336	1967.978149
732.999023	1946.702026
731.802734	1979.789062
730.607422	1971.059570
729.411133	1979.051880
728.213867	1930.626587
727.017578	1940.712280
725.820312	1952.882690
724.623047	1935.812988
723.425781	1987.649048
722.228516	1918.392090
721.030273	1890.902588
719.832031	2013.665649
718.633789	1923.579102
717.435547	1946.165771
716.237305	1879.066162
715.038086	1935.014893
713.838867	1942.993286
712.639648	1965.559326
711.439453	1971.444946
710.240234	1968.993896
709.040039	1972.793213
707.839844	1926.603638
706.638672	1965.810547
705.438477	1950.869751
704.237305	1927.607910
703.036133	2033.392822
701.834961	1974.749146
700.632812	1970.219971
699.431641	1936.571045
698.229492	1894.615601
697.026367	1973.276489
695.824219	2012.408203
694.621094	1926.812378
693.418945	2009.579224
692.214844	1907.393555
691.011719	1992.210449
689.808594	1933.682861
688.604492	1962.394531
687.400391	1966.180786
686.196289	1957.510498
684.991211	1963.371460
683.786133	2010.731323
682.581055	2022.804077
681.375977	2001.683594
680.170898	1963.979858
678.964844	1884.819824
677.758789	2042.025146
676.552734	2022.989258
675.346680	1950.079346
674.140625	1953.859131
672.933594	1878.917603
671.726562	1951.058228
670.518555	1932.056641
669.311523	1931.695679
668.103516	1976.875488
666.895508	1999.272217
665.687500	2011.314209
664.479492	1913.701660
663.270508	2070.548584
662.061523	1981.233643
660.852539	1951.915527
659.643555	1910.204346
658.433594	1988.390869
657.224609	2004.551514
656.014648	1981.449097
654.803711	1937.697388
653.593750	1997.231445
652.382812	2036.093140
651.171875	1996.484741
649.960938	1961.019531
648.750000	2008.121216
647.538086	1964.413086
646.326172	1964.045654
645.114258	1969.866455
643.902344	1952.999512
642.689453	1950.572388
641.476562	1983.191895
640.263672	1976.637451
639.050781	2056.637207
637.837891	2066.554443
636.624023	1963.168335
635.410156	2071.959961
634.196289	1941.841431
632.981445	1992.948853
631.767578	2006.984985
630.552734	1957.215820
629.337891	2024.752808
628.122070	1977.056030
626.907227	1966.401489
625.691406	2000.994141
624.475586	2004.731689
623.259766	1909.791870
622.042969	2018.368652
620.826172	1941.956299
619.609375	1970.357056
618.392578	1982.313232
617.175781	1926.488647
615.958008	2020.586060
614.740234	2001.730103
613.522461	2023.934448
612.303711	2050.235107
611.085938	2004.708984
609.867188	2043.312256
608.648438	2026.520264
607.429688	1964.618042
606.209961	1984.753418
604.990234	2078.680664
603.770508	2109.034912
602.550781	1979.539185
601.330078	2020.144653
600.110352	1948.070435
598.889648	2048.060059
597.668945	2025.151611
596.447266	1998.157104
595.225586	2012.110840
594.004883	1942.151611
592.782227	2031.817627
591.560547	2021.207764
590.337891	2018.783203
589.116211	2114.519043
587.892578	2046.650391
586.669922	2052.399170
585.447266	2031.575684
584.223633	1961.716919
583.000000	2028.770264
581.776367	2103.968994
580.551758	2060.685791
579.327148	2027.628296
578.102539	2039.496948
576.877930	2055.443359
575.653320	2022.405151
574.427734	2060.792969
573.202148	1993.085815
571.976562	1972.315308
570.750977	1994.376709
569.524414	1916.525635
568.297852	2024.204834
567.071289	1968.796265
565.844727	2035.670898
564.617188	2061.773682
563.390625	2069.534180
562.163086	2058.962646
560.934570	2101.335693
559.707031	2052.081787
558.478516	2027.271240
557.250000	2004.505005
556.021484	2075.341064
554.791992	1963.066406
553.563477	2046.086670
552.333984	1968.429077
551.104492	2130.708496
549.874023	1971.754639
548.644531	2046.581055
547.414062	2056.356201
546.183594	2001.116699
544.952148	1960.116211
543.721680	2000.364258
542.490234	2030.444702
541.258789	2009.762207
540.027344	2019.532715
538.794922	2013.064941
537.562500	1982.252563
536.330078	2050.849854
535.097656	2020.041748
533.865234	2076.439453
532.631836	1984.816162
531.398438	2083.766113
530.165039	2044.868164
528.931641	2008.010864
527.697266	1973.193237
526.462891	2088.274414
525.228516	2043.329224
523.993164	2095.587402
522.758789	2038.511353
521.523438	2032.055664
520.288086	2037.743896
519.052734	2007.012207
517.816406	2047.090698
516.580078	2030.525757
515.343750	1985.658203
514.107422	1983.262573
512.870117	2047.570435
511.633789	1978.473755
510.396484	2018.511719
509.158203	2018.131470
507.920898	2050.067627
506.682617	2081.991699
505.444336	2033.143066
504.206055	2014.592285
502.967773	2046.504639
501.728516	2054.190430
500.489258	2005.383667
499.250000	1968.697754
498.010742	2010.677979
496.770508	2054.658691
495.530273	2070.398926
494.290039	2011.556641
493.049805	2021.253418
491.808594	1998.709229
490.567383	2032.578003
489.326172	2068.447998
488.084961	2009.660889
486.842773	2021.361694
485.601562	2057.213135
484.359375	2163.490234
483.116211	2080.583252
481.874023	2140.544434
480.630859	2063.707031
479.387695	2053.262451
478.144531	2040.811157
476.900391	2038.415771
475.657227	1997.833252
474.413086	2105.969971
473.168945	2091.508545
471.923828	2077.052490
470.678711	2066.618652
469.434570	1987.916626
468.188477	2033.716431
466.943359	2009.245728
465.697266	2049.003418
464.452148	2018.519409
463.205078	2062.272461
461.958984	2025.780029
460.712891	2063.499023
459.465820	1958.851074
458.218750	1990.554443
456.970703	2056.317383
455.723633	2013.848389
454.475586	2117.647461
453.227539	2073.179688
451.979492	2080.798828
450.730469	2002.315308
449.481445	2011.946655
448.232422	2055.600586
446.983398	2075.223877
445.734375	2068.829346
444.484375	2092.443359
443.234375	2068.047363
441.984375	2071.655762
440.733398	2067.265381
439.483398	2092.860352
438.232422	2002.530762
436.980469	2024.131714
435.729492	1967.811157
434.477539	2053.327148
433.225586	2026.977661
431.973633	2002.634521
430.721680	2020.222046
429.468750	2055.765869
428.215820	2097.282715
426.962891	2023.066040
425.709961	2092.499756
424.456055	2028.283691
423.202148	1960.103760
421.948242	1987.643555
420.694336	2037.098633
419.439453	1951.019653
418.185547	2022.380005
416.930664	2085.744873
415.674805	1979.787964
414.419922	2045.128052
413.164062	2042.749878
411.908203	2052.316162
410.652344	2089.741943
409.395508	2109.244629
408.138672	2013.350342
406.881836	2012.968994
405.625000	1962.869751
404.367188	2053.961914
403.110352	1968.090088
401.852539	1969.704834
400.594727	1993.178223
399.335938	2038.497925
398.077148	1982.490601
396.818359	2053.614014
395.559570	2084.996338
394.300781	2003.202393
393.041016	2096.115723
391.781250	2079.841797
390.521484	2077.463379
389.260742	2029.457642
388.000977	2001.304565
386.740234	2010.840454
385.479492	2129.421387
384.217773	1922.855713
382.957031	2039.426025
381.695312	2033.094604
380.433594	2001.009888
379.170898	2058.074219
377.909180	2067.585938
376.646484	2043.432861
375.382812	1973.755981
374.120117	1971.402100
372.857422	2048.207031
371.593750	2031.989746
370.330078	2100.840820
369.065430	2043.085449
367.801758	2054.562500
366.537109	1998.814575
365.272461	2039.945679
364.006836	2035.605835
362.742188	2019.411865
361.476562	1993.346191
360.210938	2020.620361
358.944336	1990.614502
357.678711	2023.802002
356.412109	2039.210205
355.145508	1997.375366
353.878906	2070.008789
352.611328	2061.723877
351.343750	2015.963135
350.076172	2015.580200
348.808594	2025.056396
347.540039	1975.385620
346.272461	2063.708252
345.003906	1988.429810
343.734375	1976.230103
342.465820	2036.922729
341.196289	2034.566040
339.926758	2081.440186
338.657227	1978.665771
337.386719	1986.163452
336.116211	1979.881592
334.845703	2012.956055
333.575195	2006.671387
332.304688	1964.983887
331.033203	2013.774658
329.761719	2074.343994
328.490234	2026.769653
327.217773	2053.900391
325.945312	1978.836792
324.672852	2043.295654
323.400391	1968.262329
322.127930	1995.383301
320.854492	2034.275391
319.581055	2006.403320
318.307617	2031.538452
317.033203	1952.653320
315.759766	1938.546997
314.485352	2002.914795
313.209961	2061.374023
311.935547	1876.650269
310.660156	1986.086548
309.384766	1981.787964
308.109375	1985.330322
306.833984	2000.628174
305.557617	2010.042847
304.281250	1997.907593
303.004883	2001.443848
301.727539	1979.524902
300.450195	1986.978271
299.172852	2002.257812
297.895508	1974.480225
296.618164	1993.669067
295.339844	2069.578125
294.061523	1977.263428
292.783203	1969.065186
291.503906	1939.364868
290.225586	1970.269409
288.946289	1969.894043
287.666992	1959.749146
286.386719	1996.492310
285.106445	2009.783813
283.826172	1964.486938
282.545898	1999.255615
281.265625	1928.601562
279.984375	1967.266846
278.703125	1992.258423
277.421875	1933.351196
276.139648	1964.191162
274.858398	1954.065674
273.576172	1873.751465
272.293945	1980.612305
271.010742	1927.610107
269.727539	1931.139771
268.444336	1987.272217
267.161133	1908.975708
265.877930	1959.248047
264.593750	1960.821411
263.309570	1972.128052
262.025391	1919.197632
260.740234	1897.424438
259.456055	1926.247925
258.170898	1984.240234
256.884766	1972.191650
255.599609	1930.978760
254.313477	1930.610107
253.027344	1926.353760
251.741211	1966.798950
250.455078	1981.968140
249.167969	1960.219604
247.880859	1938.479248
246.593750	1973.064819
245.305664	1933.855469
244.017578	1916.014893
242.729492	1952.525513
241.441406	1820.197876
240.153320	1963.420288
238.864258	1838.900024
237.575195	1900.609375
236.286133	1894.429077
234.996094	1905.698975
233.706055	1887.890137
232.416016	1914.660034
231.125977	1900.731201
229.835938	1871.310303
228.544922	1913.562256
227.253906	1839.611816
225.962891	1848.940430
224.670898	1867.943848
223.378906	1873.392578
222.086914	1905.928467
220.794922	1899.760254
219.501953	1905.199463
218.209961	1846.819702
216.916992	1819.397827
215.623047	1940.835205
214.330078	1882.481934
213.036133	1831.880249
211.742188	1800.617798
210.448242	1815.726318
209.153320	1911.941528
207.858398	1824.685791
206.563477	1889.973999
205.268555	1851.009277
203.972656	1812.059448
202.676758	1896.606445
201.380859	1876.953003
200.084961	1818.733521
198.788086	1947.581299
197.492188	1858.523560
196.194336	1833.109375
194.897461	1853.957397
193.600586	1890.211914
192.302734	1874.438232
191.004883	1910.674805
189.706055	1815.948730
188.408203	1800.197998
187.109375	1784.453247
185.809570	1820.678955
184.510742	1845.345093
183.210938	1800.742432
181.912109	1860.025879
180.611328	1825.052979
179.311523	1780.479614
178.010742	1783.983154
176.709961	1825.925659
175.409180	1906.285278
174.108398	1842.517212
172.806641	1805.666382
171.504883	1741.941895
170.203125	1806.894165
168.900391	1833.425049
167.598633	1836.912354
166.295898	1759.796753
164.993164	1776.727661
163.689453	1774.468384
162.385742	1814.405518
161.082031	1823.645386
159.778320	1840.550659
158.474609	1784.608154
157.169922	1709.522095
155.865234	1818.413696
154.559570	1856.380127
153.254883	1743.015137
151.949219	1706.294922
150.643555	1715.540649
149.337891	1768.811646
148.031250	1724.451660
146.724609	1785.354614
145.417969	1825.188843
144.111328	1807.622925
142.803711	1832.137817
141.497070	1776.335205
140.188477	1749.229858
138.880859	1773.741455
137.572266	1662.563232
136.264648	1773.060059
134.955078	1707.770630
133.646484	1707.442505
132.336914	1688.019165
131.028320	1685.785645
129.717773	1660.647339
128.408203	1669.870361
127.097656	1660.009155
125.787109	1623.443970
124.476562	1523.951050
123.166016	1611.378052
121.854492	1628.227539
120.542969	1561.196655
119.231445	1530.402832
117.918945	1471.038330
116.607422	1381.214600
115.294922	1293.330078
113.981445	1102.642334
112.668945	974.860535
111.355469	849.031555
110.041992	675.668640
108.728516	540.430969
107.414062	426.173370
106.099609	313.861938
104.785156	252.943069
103.470703	195.850540
102.155273	123.571220
100.839844	108.341599
99.524414	64.612373
