#Wave		#Intensity
1998.884766	2237.087646
1997.916992	2247.420654
1996.949219	2303.850342
1995.981445	2225.978516
1995.012695	2279.810303
1994.044922	2300.064453
1993.076172	2268.691650
1992.107422	2425.709229
1991.138672	2309.182129
1990.168945	2308.779541
1989.200195	2401.228027
1988.230469	2328.604492
1987.260742	2441.643311
1986.291016	2335.525879
1985.321289	2384.089111
1984.350586	2350.173096
1983.380859	2251.856445
1982.410156	2369.961914
1981.439453	2392.728760
1980.468750	2348.533936
1979.497070	2270.883301
1978.526367	2278.209961
1977.554688	2360.174072
1976.583984	2277.415039
1975.612305	2315.611328
1974.639648	2379.518555
1973.667969	2309.659424
1972.696289	2340.114990
1971.723633	2306.282227
1970.750977	2460.119141
1969.778320	2323.468750
1968.805664	2374.458496
1967.832031	2219.885254
1966.859375	2324.821289
1965.885742	2324.415527
1964.912109	2213.587158
1963.938477	2431.439697
1962.964844	2346.302002
1961.991211	2348.458984
1961.016602	2409.636963
1960.041992	2278.364258
1959.067383	2370.316406
1958.092773	2362.208008
1957.118164	2289.992920
1956.142578	2320.360107
1955.167969	2314.827881
1954.192383	2360.558350
1953.216797	2365.271240
1952.241211	2254.685791
1951.264648	2287.593994
1950.289062	2315.368164
1949.312500	2250.943604
1948.335938	2376.007568
1947.359375	2411.431152
1946.382812	2306.072021
1945.406250	2303.110107
1944.428711	2376.906006
1943.451172	2317.654053
1942.473633	2258.422607
1941.496094	2373.102783
1940.518555	2347.120361
1939.541016	2397.836670
1938.562500	2307.961670
1937.583984	2197.674316
1936.605469	2427.239258
1935.626953	2339.960449
1934.648438	2362.538086
1933.668945	2415.751709
1932.690430	2440.861328
1931.710938	2407.248779
1930.731445	2399.170898
1929.751953	2368.128906
1928.771484	2324.340820
1927.791992	2374.953613
1926.811523	2354.134033
1925.831055	2465.925781
1924.850586	2340.562500
1923.870117	2416.628662
1922.888672	2400.913330
1921.908203	2341.882568
1920.926758	2290.515869
1919.945312	2369.084473
1918.963867	2299.902100
1917.982422	2350.429932
1917.000000	2365.295166
1916.018555	2446.341064
1915.036133	2331.380127
1914.053711	2336.061523
1913.071289	2310.209717
1912.087891	2406.471191
1911.105469	2380.615967
1910.122070	2329.340332
1909.138672	2280.625000
1908.155273	2369.197754
1907.171875	2333.200439
1906.187500	2248.933350
1905.204102	2362.872070
1904.219727	2354.837402
1903.235352	2334.106445
1902.250977	2453.049072
1901.266602	2363.756348
1900.281250	2343.034424
1899.296875	2329.933838
1898.311523	2372.665039
1897.326172	2349.414795
1896.340820	2381.980713
1895.354492	2348.591797
1894.369141	2345.644531
1893.382812	2276.778076
1892.396484	2314.403320
1891.410156	2245.566406
1890.423828	2366.807373
1889.436523	2384.127930
1888.450195	2335.580078
1887.462891	2355.432373
1886.475586	2334.761475
1885.488281	2334.352295
1884.500977	2328.880371
1883.512695	2424.647949
1882.525391	2315.411377
1881.537109	2365.606689
1880.548828	2420.843506
1879.560547	2314.193848
1878.571289	2440.224609
1877.583008	2336.136963
1876.593750	2467.175049
1875.604492	2360.591553
1874.615234	2360.177734
1873.625977	2304.180420
1872.635742	2389.662598
1871.646484	2316.000244
1870.656250	2290.342285
1869.666016	2294.989990
1868.675781	2347.597656
1867.684570	2354.757324
1866.694336	2460.327637
1865.703125	2351.408203
1864.711914	2391.356201
1863.720703	2305.185547
1862.729492	2350.170654
1861.738281	2410.267090
1860.746094	2447.655273
1859.753906	2411.941406
1858.762695	2368.680176
1857.769531	2380.861572
1856.777344	2375.405762
1855.785156	2339.729248
1854.791992	2409.825195
1853.798828	2427.025879
1852.805664	2393.875977
1851.812500	2406.039551
1850.819336	2342.708740
1849.825195	2460.544189
1848.831055	2384.648682
1847.837891	2356.564697
1846.842773	2424.044189
1845.848633	2395.963135
1844.854492	2377.946533
1843.859375	2337.316895
1842.864258	2437.418457
1841.869141	2404.329590
1840.874023	2479.264893
1839.878906	2466.271973
1838.883789	2395.529541
1837.887695	2332.343750
1836.891602	2402.218262
1835.895508	2459.519531
1834.899414	2446.541016
1833.902344	2398.443115
1832.906250	2438.156006
1831.909180	2382.552490
1830.912109	2424.761475
1829.915039	2426.842285
1828.917969	2421.402344
1827.919922	2338.272705
1826.922852	2435.585693
1825.924805	2390.062012
1824.926758	2379.622314
1823.928711	2386.717041
1822.929688	2393.809326
1821.931641	2405.906250
1820.932617	2370.439697
1819.933594	2502.664062
1818.934570	2417.148193
1817.935547	2346.673096
1816.935547	2358.767090
1815.936523	2465.891113
1814.936523	2502.964355
1813.936523	2417.523193
1812.936523	2409.599121
1811.935547	2454.159668
1810.935547	2463.722656
1809.934570	2493.268311
1808.933594	2462.855713
1807.932617	2439.946045
1806.931641	2412.050049
1805.929688	2416.618652
1804.928711	2393.728760
1803.926758	2418.263672
1802.924805	2367.934326
1801.922852	2350.054199
1800.919922	2369.594971
1799.917969	2346.732910
1798.915039	2341.333008
1797.912109	2423.189453
1796.909180	2335.523438
1795.906250	2474.670654
1794.903320	2496.660156
1793.899414	2473.799316
1792.895508	2386.185547
1791.891602	2363.352051
1790.887695	2477.472168
1789.883789	2462.099121
1788.878906	2379.526855
1787.875000	2431.368408
1786.870117	2411.034668
1785.865234	2385.732666
1784.859375	2405.210693
1783.854492	2417.221191
1782.848633	2414.308838
1781.843750	2490.948730
1780.837891	2408.487061
1779.832031	2408.062500
1778.825195	2422.546143
1777.819336	2402.245361
1776.812500	2498.689697
1775.805664	2460.999023
1774.798828	2472.979736
1773.791992	2462.614014
1772.784180	2482.036133
1771.777344	2384.816162
1770.769531	2354.621826
1769.761719	2450.954834
1768.753906	2368.673340
1767.746094	2417.852539
1766.737305	2352.961426
1765.729492	2347.588623
1764.720703	2391.788330
1763.711914	2336.848145
1762.702148	2324.047607
1761.693359	2360.796143
1760.683594	2377.717285
1759.674805	2352.534180
1758.665039	2394.209717
1757.654297	2398.738281
1756.644531	2390.889893
1755.634766	2514.198242
1754.624023	2422.210449
1753.613281	2372.308350
1752.602539	2329.843750
1751.591797	2438.238281
1750.580078	2425.445801
1749.569336	2425.017822
1748.557617	2419.646729
1747.545898	2485.939697
1746.534180	2401.497803
1745.522461	2354.139160
1744.509766	2348.783936
1743.497070	2373.062988
1742.484375	2384.988770
1741.471680	2389.504639
1740.458984	2450.784180
1739.446289	2346.710938
1738.432617	2390.706055
1737.418945	2410.017822
1736.405273	2446.586914
1735.391602	2364.780762
1734.377930	2416.137451
1733.363281	2361.480225
1732.348633	2432.535889
1731.334961	2439.498535
1730.319336	2436.603760
1729.304688	2426.320068
1728.290039	2366.783447
1727.274414	2484.560303
1726.258789	2447.191895
1725.243164	2392.605713
1724.227539	2357.727539
1723.211914	2352.389648
1722.195312	2438.081543
1721.178711	2445.030029
1720.163086	2420.004150
1719.145508	2463.836914
1718.128906	2404.397705
1717.112305	2394.140625
1716.094727	2477.276123
1715.077148	2408.037109
1714.059570	2417.438232
1713.041992	2387.534912
1712.024414	2409.215576
1711.005859	2416.156006
1709.987305	2388.723633
1708.968750	2317.118408
1707.950195	2358.428955
1706.931641	2338.382080
1705.912109	2416.473145
1704.893555	2430.762695
1703.874023	2408.260986
1702.854492	2444.614502
1701.833984	2424.569580
1700.814453	2382.471924
1699.793945	2465.373047
1698.774414	2425.732910
1697.753906	2398.355713
1696.732422	2466.513672
1695.711914	2429.343018
1694.691406	2458.295166
1693.669922	2335.456543
1692.648438	2415.815186
1691.626953	2498.592285
1690.605469	2414.959717
1689.583008	2446.334473
1688.560547	2399.429199
1687.539062	2430.795654
1686.516602	2464.595703
1685.493164	2493.494385
1684.470703	2361.067627
1683.447266	2438.849121
1682.424805	2416.427246
1681.401367	2408.670654
1680.377930	2366.722656
1679.353516	2371.187500
1678.330078	2512.378662
1677.305664	2431.375732
1676.281250	2462.674316
1675.256836	2306.060303
1674.232422	2442.282959
1673.207031	2456.486572
1672.182617	2375.564941
1671.157227	2375.144043
1670.131836	2357.656250
1669.106445	2425.493408
1668.080078	2393.379395
1667.054688	2480.680664
1666.028320	2431.513184
1665.001953	2421.338135
1663.975586	2333.230225
1662.949219	2432.655273
1661.921875	2536.914307
1660.895508	2543.767090
1659.868164	2424.060059
1658.840820	2387.129639
1657.813477	2420.767334
1656.785156	2400.878174
1655.757812	2424.772949
1654.729492	2400.026611
1653.701172	2380.151123
1652.672852	2515.852295
1651.643555	2396.319336
1650.615234	2437.202637
1649.585938	2439.199707
1648.556641	2472.773682
1647.527344	2394.619141
1646.498047	2394.194092
1645.467773	2447.179932
1644.438477	2412.763184
1643.408203	2371.077637
1642.377930	2441.024414
1641.346680	2496.389893
1640.316406	2423.178711
1639.285156	2381.520508
1638.254883	2429.592529
1637.223633	2402.493896
1636.192383	2397.219482
1635.160156	2384.676758
1634.128906	2456.943848
1633.096680	2352.336182
1632.064453	2351.918457
1631.032227	2375.718018
1630.000000	2375.296143
1628.966797	2370.032715
1627.934570	2413.179688
1626.901367	2400.650879
1625.868164	2334.895752
1624.833984	2382.864014
1623.800781	2389.696777
1622.766602	2377.180908
1621.733398	2321.147705
1620.699219	2291.726074
1619.665039	2366.245850
1618.629883	2457.655273
1617.595703	2396.814941
1616.560547	2425.377441
1615.525391	2369.394775
1614.490234	2359.314209
1613.455078	2419.255615
1612.418945	2322.265625
1611.382812	2440.117676
1610.347656	2381.768555
1609.311523	2330.678223
1608.274414	2436.404053
1607.238281	2428.735352
1606.201172	2421.069336
1605.164062	2374.829834
1604.126953	2362.354736
1603.089844	2318.552002
1602.052734	2363.924072
1601.014648	2443.010010
1599.977539	2418.486816
1598.939453	2360.254639
1597.901367	2306.858887
1596.862305	2424.419189
1595.824219	2298.816650
1594.785156	2375.422363
1593.746094	2360.562012
1592.707031	2398.635498
1591.667969	2306.802490
1590.627930	2424.236816
1589.588867	2402.164307
1588.548828	2420.969971
1587.508789	2406.116699
1586.468750	2376.849121
1585.427734	2419.677490
1584.387695	2315.942139
1583.346680	2279.499756
1582.305664	2413.582275
1581.264648	2374.734131
1580.222656	2381.513428
1579.181641	2431.495605
1578.139648	2342.267578
1577.097656	2344.249756
1576.055664	2442.191650
1575.013672	2374.596436
1573.970703	2407.747803
1572.928711	2460.068848
1571.885742	2361.341309
1570.842773	2380.095703
1569.799805	2485.115234
1568.755859	2369.663574
1567.711914	2383.614990
1566.668945	2423.907959
1565.625000	2377.976074
1564.580078	2279.385498
1563.536133	2322.069092
1562.491211	2388.672119
1561.447266	2443.286133
1560.402344	2337.576172
1559.357422	2406.532715
1558.311523	2348.701660
1557.266602	2384.152832
1556.220703	2410.027588
1555.174805	2318.760010
1554.128906	2401.998047
1553.083008	2351.387695
1552.036133	2348.579346
1550.989258	2407.879639
1549.943359	2433.722168
1548.896484	2399.857178
1547.848633	2366.004395
1546.801758	2348.872803
1545.753906	2379.480225
1544.706055	2376.669434
1543.658203	2383.402832
1542.610352	2354.353271
1541.562500	2399.247070
1540.513672	2329.668213
1539.464844	2298.259277
1538.416016	2414.648682
1537.367188	2426.133789
1536.318359	2485.271240
1535.268555	2415.738525
1534.219727	2415.307373
1533.169922	2345.811768
1532.119141	2357.298584
1531.069336	2387.826660
1530.019531	2425.484375
1528.968750	2448.849854
1527.917969	2467.447754
1526.867188	2390.879639
1525.816406	2330.988770
1524.764648	2378.135254
1523.713867	2401.487793
1522.662109	2410.567871
1521.610352	2464.805176
1520.557617	2366.931152
1519.505859	2414.028564
1518.453125	2420.724121
1517.400391	2427.417236
1516.347656	2348.617188
1515.294922	2333.951660
1514.242188	2331.160645
1513.188477	2416.188965
1512.134766	2460.844971
1511.081055	2382.108887
1510.027344	2353.216797
1508.973633	2345.680908
1507.918945	2354.747070
1506.865234	2406.486572
1505.810547	2353.905518
1504.755859	2320.303711
1503.700195	2357.803223
1502.645508	2359.750977
1501.589844	2373.541992
1500.534180	2316.276367
1499.478516	2370.325195
1498.422852	2374.636475
1497.366211	2329.236572
1496.310547	2404.554199
1495.253906	2394.658936
1494.197266	2344.548096
1493.139648	2311.012939
1492.083008	2327.154541
1491.025391	2385.852539
1489.967773	2295.587891
1488.910156	2394.453857
1487.852539	2313.673096
1486.794922	2263.638672
1485.736328	2317.570068
1484.677734	2326.603516
1483.619141	2363.972900
1482.560547	2384.800537
1481.501953	2271.056885
1480.442383	2452.396973
1479.382812	2331.602051
1478.323242	2342.982178
1477.263672	2328.408203
1476.204102	2346.860596
1475.143555	2311.066895
1474.083008	2329.515625
1473.023438	2336.170654
1471.961914	2352.251221
1470.901367	2361.256104
1469.840820	2379.682129
1468.779297	2313.296387
1467.717773	2308.171631
1466.656250	2364.274658
1465.593750	2328.534668
1464.532227	2346.949707
1463.469727	2278.275146
1462.407227	2369.640625
1461.344727	2352.746826
1460.282227	2326.449707
1459.219727	2314.273193
1458.156250	2391.457520
1457.092773	2318.145996
1456.029297	2329.483887
1454.965820	2312.614746
1453.901367	2359.196289
1452.837891	2285.942627
1451.773438	2283.184082
1450.708984	2325.048340
1449.643555	2364.549316
1448.579102	2291.347168
1447.513672	2307.367188
1446.449219	2311.647217
1445.382812	2290.114746
1444.317383	2357.738281
1443.251953	2340.896484
1442.185547	2249.015137
1441.119141	2255.645996
1440.052734	2290.406250
1438.986328	2343.905273
1437.919922	2369.263184
1436.852539	2204.823486
1435.786133	2262.994141
1434.718750	2227.454834
1433.650391	2386.297852
1432.583008	2299.238281
1431.514648	2369.054688
1430.447266	2265.645752
1429.378906	2354.163818
1428.310547	2262.492920
1427.241211	2388.407959
1426.172852	2214.903564
1425.103516	2279.982422
1424.034180	2356.727783
1422.964844	2227.736572
1421.894531	2182.930176
1420.825195	2238.620361
1419.754883	2261.582031
1418.684570	2342.933350
1417.614258	2386.887207
1416.543945	2307.065674
1415.472656	2327.663330
1414.402344	2366.927490
1413.331055	2298.821289
1412.259766	2303.075195
1411.187500	2395.980957
1410.116211	2360.562012
1409.043945	2271.516113
1407.971680	2282.766846
1406.899414	2238.061768
1405.827148	2330.895264
1404.753906	2216.283203
1403.681641	2274.136230
1402.608398	2373.902100
1401.535156	2243.039062
1400.460938	2214.690430
1399.387695	2312.084229
1398.313477	2307.012695
1397.239258	2283.322510
1396.165039	2178.191406
1395.090820	2352.302979
1394.016602	2221.607666
1392.941406	2295.636230
1391.866211	2346.383545
1390.791016	2318.061035
1389.715820	2322.293457
1388.639648	2289.336914
1387.564453	2300.544189
1386.488281	2300.130371
1385.412109	2223.059326
1384.334961	2269.110107
1383.258789	2301.211426
1382.181641	2314.727539
1381.105469	2235.387695
1380.028320	2179.284912
1378.950195	2253.146973
1377.873047	2308.422119
1376.794922	2287.130127
1375.716797	2205.547119
1374.638672	2330.363525
1373.560547	2316.034180
1372.482422	2287.802002
1371.403320	2257.262451
1370.324219	2317.100586
1369.245117	2212.432861
1368.166016	2244.462158
1367.086914	2327.428711
1366.006836	2329.324951
1364.926758	2271.030273
1363.846680	2300.710938
1362.766602	2214.671875
1361.685547	2230.469482
1360.605469	2345.735107
1359.524414	2268.985840
1358.443359	2273.202148
1357.362305	2279.729004
1356.280273	2253.889893
1355.199219	2262.728760
1354.117188	2333.957520
1353.035156	2250.361328
1351.953125	2266.125977
1350.870117	2261.098389
1349.788086	2186.797119
1348.705078	2278.753662
1347.622070	2289.884766
1346.539062	2257.160889
1345.455078	2155.223145
1344.372070	2265.575684
1343.288086	2193.659912
1342.204102	2327.028320
1341.119141	2285.103271
1340.035156	2277.774902
1338.950195	2222.043701
1337.866211	2302.304199
1336.781250	2260.413574
1335.695312	2230.056885
1334.610352	2204.317627
1333.524414	2256.887939
1332.439453	2203.522461
1331.353516	2283.699219
1330.266602	2207.331055
1329.180664	2255.259766
1328.093750	2247.950195
1327.006836	2254.446045
1325.919922	2325.340576
1324.833008	2161.647461
1323.746094	2161.257568
1322.658203	2250.520508
1321.570312	2298.380371
1320.482422	2256.602051
1319.394531	2265.385010
1318.306641	2239.707520
1317.217773	2214.039307
1316.128906	2252.676758
1315.040039	2220.127686
1313.951172	2185.294678
1312.861328	2136.703613
1311.772461	2296.943359
1310.682617	2133.637939
1309.592773	2160.778320
1308.502930	2164.974854
1307.412109	2205.857666
1306.322266	2216.922363
1305.231445	2230.274658
1304.140625	2282.582031
1303.048828	2238.634521
1301.958008	2295.502930
1300.866211	2233.244629
1299.774414	2189.329346
1298.682617	2266.782715
1297.590820	2245.769775
1296.499023	2199.586914
1295.406250	2206.054688
1294.313477	2246.840332
1293.220703	2241.859131
1292.127930	2218.581787
1291.034180	2291.357910
1289.941406	2302.375488
1288.847656	2210.520996
1287.753906	2203.264648
1286.659180	2228.002686
1285.565430	2136.211182
1284.470703	2160.952393
1283.375977	2160.561523
1282.281250	2157.887207
1281.186523	2205.441406
1280.090820	2287.218018
1278.996094	2177.256836
1277.900391	2199.681152
1276.804688	2235.785889
1275.708008	2155.546387
1274.612305	2152.875732
1273.515625	2214.051025
1272.418945	2218.209961
1271.322266	2222.367188
1270.225586	2206.012451
1269.127930	2310.425537
1268.030273	2230.273193
1266.933594	2161.538574
1265.834961	2113.324219
1264.737305	2110.664795
1263.639648	2235.488281
1262.541016	2171.354248
1261.442383	2120.896973
1260.343750	2227.448730
1259.244141	2181.549072
1258.145508	2140.214600
1257.045898	2233.060791
1255.946289	2137.166016
1254.846680	2129.959473
1253.746094	2131.846436
1252.646484	2206.447754
1251.545898	2194.688232
1250.445312	2153.403320
1249.344727	2225.688721
1248.243164	2257.075439
1247.142578	2161.314209
1246.041016	2101.906006
1244.939453	2169.608887
1243.837891	2130.641846
1242.735352	2243.687988
1241.633789	2227.403564
1240.531250	2093.198486
1239.428711	2169.911133
1238.326172	2069.769775
1237.222656	2182.723877
1236.119141	2170.997314
1235.016602	2249.905518
1233.913086	2122.637695
1232.808594	2144.902344
1231.705078	2126.397217
1230.600586	2164.501709
1229.496094	2155.054199
1228.391602	2150.136719
1227.287109	2179.164307
1226.181641	2153.881836
1225.077148	2180.635986
1223.971680	2162.147217
1222.866211	2125.574951
1221.759766	2136.493408
1220.654297	2215.220703
1219.547852	2208.038818
1218.441406	2257.349609
1217.334961	2055.871094
1216.228516	2134.555664
1215.121094	2186.111084
1214.013672	2151.844727
1212.906250	2210.150635
1211.798828	2193.949463
1210.691406	2134.875977
1209.583008	2109.668701
1208.474609	2154.404053
1207.366211	2156.268555
1206.257812	2083.713623
1205.149414	2250.182617
1204.040039	2076.194092
1202.930664	2172.733643
1201.821289	2199.380615
1200.711914	2144.907959
1199.602539	2216.603027
1198.492188	2101.336182
1197.381836	2114.465576
1196.271484	2127.589844
1195.161133	2154.215332
1194.049805	2147.072266
1192.939453	2166.933838
1191.828125	2150.791504
1190.716797	2130.156494
1189.604492	2098.283691
1188.493164	2122.636475
1187.380859	2176.206299
1186.268555	2119.617188
1185.156250	2200.135742
1184.043945	2168.279053
1182.930664	2080.270752
1181.817383	2248.350342
1180.704102	2097.479980
1179.590820	2135.268555
1178.477539	2143.859619
1177.363281	2046.957642
1176.250000	2208.157959
1175.135742	2066.406006
1174.020508	2113.138428
1172.906250	2128.453857
1171.791016	2215.521484
1170.675781	2064.902832
1169.560547	2071.252197
1168.445312	2077.598877
1167.330078	2151.167236
1166.213867	2220.228027
1165.097656	2105.584717
1163.981445	2111.920410
1162.865234	2127.210205
1161.748047	2091.002930
1160.631836	2191.348145
1159.514648	2132.762695
1158.397461	2089.861328
1157.279297	2064.872314
1156.162109	2183.042969
1155.043945	2108.846924
1153.925781	2157.653076
1152.807617	2166.202148
1151.689453	2179.218262
1150.570312	2082.729736
1149.451172	2142.676025
1148.332031	2117.713135
1147.212891	2099.459717
1146.093750	2163.836182
1144.973633	2056.274658
1143.853516	2084.919189
1142.733398	2142.567139
1141.613281	2001.596558
1140.492188	2108.321045
1139.372070	2067.785889
1138.250977	2120.934082
1137.129883	2098.249512
1136.008789	2142.455078
1134.886719	2068.507812
1133.764648	2074.816650
1132.642578	2069.981934
1131.520508	2067.376953
1130.398438	2162.777100
1129.275391	2102.254639
1128.153320	2048.433838
1127.030273	2128.201904
1125.907227	2132.265381
1124.783203	2109.623047
1123.660156	2018.016113
1122.536133	2128.874512
1121.412109	2017.280029
1120.288086	2079.176270
1119.163086	2103.253418
1118.038086	2067.303223
1116.914062	2122.488525
1115.789062	2070.993164
1114.663086	2028.403198
1113.538086	2127.990967
1112.412109	2094.289551
1111.286133	2100.568604
1110.160156	2091.305176
1109.034180	2030.992432
1107.907227	2179.312012
1106.780273	2172.257812
1105.653320	2143.021484
1104.526367	2116.013672
1103.399414	2000.310181
1102.271484	2110.806641
1101.144531	2055.000488
1100.015625	2129.983887
1098.887695	2096.354492
1097.759766	2071.599854
1096.630859	2106.665039
1095.501953	2064.198975
1094.373047	2063.822021
1093.244141	2083.370850
1092.114258	2023.223389
1090.985352	2087.036133
1089.855469	2049.037598
1088.725586	2064.149902
1087.594727	2099.164307
1086.464844	2087.722900
1085.333984	2034.273438
1084.203125	2102.435303
1083.072266	2079.947510
1081.941406	2039.788208
1080.809570	2065.929932
1079.677734	2114.153564
1078.545898	2051.922363
1077.414062	2093.505615
1076.281250	2097.538818
1075.149414	2075.080078
1074.016602	2134.292969
1072.883789	2105.215332
1071.750000	2093.798828
1070.617188	2044.885742
1069.483398	2086.416504
1068.349609	2011.061157
1067.215820	2076.834473
1066.082031	2008.121216
1064.947266	2062.851318
1063.812500	2058.066895
1062.677734	2053.284180
1061.542969	1986.827881
1060.408203	2116.399414
1059.272461	2038.946045
1058.136719	2089.207031
1057.000977	2073.417236
1055.865234	2106.047852
1054.728516	2125.464844
1053.592773	2109.676758
1052.456055	2087.295898
1051.319336	2115.501709
1050.181641	2033.763794
1049.044922	2068.563721
1047.907227	2103.350586
1046.769531	2052.424072
1045.631836	2093.792236
1044.493164	2049.475586
1043.355469	2055.689209
1042.216797	2090.446289
1041.078125	2039.568115
1039.939453	2065.534912
1038.799805	2080.519043
1037.660156	2066.972412
1036.521484	2084.144531
1035.380859	2079.375732
1034.241211	1943.026855
1033.101562	2036.953857
1031.960938	2117.693115
1030.820312	2073.468506
1029.679688	2103.768555
1028.538086	2136.248291
1027.397461	2015.372437
1026.255859	2113.562988
1025.114258	2108.795898
1023.971680	2027.400757
1022.830078	2033.596191
1021.687500	2063.864014
1020.544922	2061.297363
1019.402344	2054.355957
1018.259766	2102.102295
1017.116211	2060.163574
1015.973633	2009.493652
1014.830078	2002.566406
1013.685547	2039.357910
1012.541992	2030.242188
1011.397461	2073.569824
1010.253906	2108.143066
1009.109375	2114.308838
1007.963867	2098.634277
1006.819336	2054.581299
1005.673828	2006.178223
1004.528320	2036.366455
1003.382812	2105.822998
1002.237305	2000.710205
1001.090820	2026.519775
999.944336	2065.405762
998.797852	2036.678833
997.651367	2066.827881
996.504883	2083.886719
995.357422	2087.862793
994.209961	2128.880371
993.062500	2054.417236
991.915039	2027.901611
990.766602	2064.551758
989.619141	2053.285645
988.470703	2050.731445
987.322266	2076.473877
986.172852	2041.273438
985.024414	2045.250000
983.875000	2062.277344
982.725586	2087.998535
981.576172	2135.456055
980.425781	2080.708740
979.276367	2052.066895
978.125977	2034.302612
976.975586	2099.118896
975.824219	2081.352295
974.673828	2080.969727
973.522461	2041.494751
972.371094	1986.834351
971.219727	2077.651367
970.067383	2075.098633
968.916016	2035.653442
967.763672	2085.184814
966.611328	2032.735474
965.458984	2093.093994
964.305664	2127.406738
963.153320	2070.642090
962.000000	2031.240601
960.845703	2108.893799
959.692383	1987.153076
958.539062	2023.619995
957.384766	2081.735596
956.230469	2122.503174
955.076172	2026.834106
953.920898	2054.606445
952.765625	2015.265137
951.611328	2064.671631
950.456055	2027.506470
949.299805	2055.257812
948.144531	2065.694824
946.988281	2069.639893
945.832031	2080.070068
944.675781	2088.334473
943.518555	2027.429688
942.362305	2052.988770
941.205078	2074.217285
940.047852	2024.149658
938.890625	2088.572266
937.732422	2051.477051
936.574219	2061.894531
935.416992	2057.197510
934.257812	2071.926270
933.099609	2106.070312
931.940430	2021.541504
930.782227	2096.666260
929.623047	1969.036621
928.462891	2013.955566
927.303711	2013.584473
926.143555	2086.499512
924.983398	2027.927856
923.823242	1990.924561
922.663086	2074.574707
921.501953	2074.192383
920.341797	2086.730957
919.180664	1991.610229
918.018555	2066.587402
916.857422	2040.378784
915.695312	1990.508911
914.533203	2069.747559
913.371094	2045.703735
912.208984	2006.613647
911.046875	2100.857422
909.883789	2063.921387
908.720703	2024.849243
907.557617	1979.344116
906.393555	1996.168823
905.230469	2086.030518
904.066406	2081.349854
902.902344	1995.064331
901.737305	2033.344727
900.573242	2007.208618
899.408203	2066.936035
898.243164	2081.576172
897.078125	2025.407593
895.913086	2007.872437
894.747070	2020.370361
893.581055	1949.233276
892.415039	1970.313110
891.249023	2038.543945
890.083008	2061.742676
888.916016	2080.646973
887.749023	2095.259521
886.582031	2032.754761
885.414062	2103.052246
884.247070	2049.133789
883.079102	2083.008301
881.911133	2035.534302
880.743164	2028.738281
879.574219	2013.386108
878.406250	2075.051758
877.237305	2021.197632
876.068359	2044.347046
874.898438	2078.177979
873.729492	2073.518555
872.559570	2045.351196
871.389648	2055.657471
870.219727	2021.094116
869.048828	2035.673096
867.877930	1954.141235
866.707031	2030.650024
865.536133	2128.479248
864.365234	1946.654175
863.193359	1959.098877
862.022461	2088.892334
860.850586	2118.372314
859.677734	2079.588135
858.505859	2000.300537
857.333008	2091.611816
856.160156	2069.907715
854.987305	2129.202148
853.814453	2047.832642
852.640625	2041.062134
851.466797	2034.294189
850.292969	2104.199707
849.119141	2033.541382
847.945312	2005.488525
846.770508	2075.360352
845.595703	2079.232666
844.420898	2106.509277
843.246094	2016.768799
842.070312	2169.539551
840.894531	2079.820312
839.718750	2068.804443
838.542969	2102.434326
837.367188	2048.909668
836.190430	2029.404907
835.013672	2111.890137
833.836914	2088.132324
832.660156	2004.915405
831.482422	2008.791016
830.304688	2133.679688
829.126953	2129.039307
827.949219	2132.889404
826.770508	2053.984619
825.592773	2011.174316
824.414062	2091.403320
823.235352	2044.360352
822.055664	2005.815918
820.876953	2039.363037
819.697266	2121.646729
818.517578	2066.156006
817.337891	2097.554199
816.157227	2092.928711
814.976562	2016.294312
813.795898	2079.447510
812.615234	2151.045898
811.434570	2053.275146
810.252930	2040.196167
809.071289	2109.645752
807.889648	2105.023438
806.708008	2119.439453
805.526367	2080.979736
804.343750	1960.071533
803.161133	2059.067627
801.978516	2128.435791
800.794922	2106.908447
799.612305	2047.357666
798.428711	2013.178345
797.245117	2131.080811
796.060547	1978.644531
794.876953	2018.391846
793.692383	2104.563965
792.507812	2047.189819
791.323242	2095.342529
790.138672	2145.586914
788.953125	2079.799561
787.767578	2117.374268
786.582031	2024.205200
785.396484	2061.776123
784.209961	1993.944946
783.023438	2046.259033
781.836914	2031.130249
780.650391	2093.950684
779.463867	2133.579590
778.276367	2048.951172
777.088867	2136.998047
775.901367	2041.875000
774.712891	2035.181885
773.525391	2116.869385
772.336914	2080.710449
771.148438	2137.117432
769.959961	2111.483398
768.770508	2079.551025
767.581055	2032.914185
766.392578	2076.676270
765.202148	2088.899414
764.012695	2094.814453
762.822266	2060.813477
761.631836	2100.336914
760.441406	2062.147461
759.250977	2141.547119
758.060547	2017.298218
756.869141	2151.244873
755.677734	2060.614258
754.486328	2035.055054
753.293945	2091.312012
752.102539	2042.687134
750.910156	2050.694580
749.716797	2102.723877
748.524414	2108.620850
747.332031	2095.654785
746.138672	2015.644897
744.945312	2140.962402
743.750977	2113.335693
742.557617	2108.754395
741.363281	2139.767578
740.168945	2009.583618
738.974609	2061.532959
737.780273	2182.516357
736.584961	2106.792725
735.389648	2068.749023
734.194336	2049.541504
732.999023	2059.614990
731.802734	2103.133789
730.607422	2077.659912
729.411133	2071.003662
728.213867	2137.479492
727.017578	2045.163940
725.820312	2122.062988
724.623047	2107.050049
723.425781	2104.569580
722.228516	2116.702393
721.030273	2074.566406
719.832031	2099.220215
718.633789	2094.656494
717.435547	2088.008545
716.237305	2114.731445
715.038086	2108.082031
713.838867	2118.113037
712.639648	2088.537109
711.439453	2050.636230
710.240234	2014.832886
709.040039	2147.782227
707.839844	2086.980225
706.638672	2115.745117
705.438477	2102.858643
704.237305	2083.731689
703.036133	2177.000000
701.834961	2070.469482
700.632812	2074.244385
699.431641	2105.058838
698.229492	2046.434448
697.026367	2150.018799
695.824219	2060.223633
694.621094	2068.153564
693.418945	2101.018311
692.214844	2086.081787
691.011719	2123.085449
689.808594	2054.148438
688.604492	2122.293213
687.400391	2115.668701
686.196289	2104.894531
684.991211	2044.313843
683.786133	2145.610107
682.581055	2085.044189
681.375977	2180.072021
680.170898	2088.413574
678.964844	2154.375977
677.758789	2131.169434
676.552734	2093.462158
675.346680	2165.603516
674.140625	2117.543945
672.933594	2113.005371
671.726562	2151.963379
670.518555	2201.260498
669.311523	2142.877930
668.103516	2154.897705
666.895508	2160.704102
665.687500	2152.023438
664.479492	2170.241211
663.270508	2165.698730
662.061523	2128.068359
660.852539	2086.316406
659.643555	2152.080811
658.433594	2162.013184
657.224609	2163.675781
656.014648	2177.734375
654.803711	2107.091064
653.593750	2156.266357
652.382812	2217.813477
651.171875	2128.620117
649.960938	2210.791504
648.750000	2179.420410
647.538086	2201.710938
646.326172	2102.271484
645.114258	2165.821777
643.902344	2140.668945
642.689453	2136.144775
641.476562	2096.576172
640.263672	2120.917480
639.050781	2157.614502
637.837891	2159.271240
636.624023	2173.287109
635.410156	2125.509521
634.196289	2199.243652
632.981445	2172.067139
631.767578	2140.783936
630.552734	2156.847656
629.337891	2228.462646
628.122070	2199.243408
626.907227	2073.360596
625.691406	2167.572266
624.475586	2185.671631
623.259766	2160.593262
622.042969	2141.690430
620.826172	2172.114258
619.609375	2151.161377
618.392578	2204.167969
617.175781	2117.494385
615.958008	2059.601562
614.740234	2165.974609
613.522461	2118.357422
612.303711	2210.313477
611.085938	2271.456299
609.867188	2166.403320
608.648438	2133.179199
607.429688	2157.388428
606.209961	2140.581299
604.990234	2105.330322
603.770508	2213.564209
602.550781	2217.247803
601.330078	2161.513916
600.110352	2077.122314
598.889648	2097.213623
597.668945	2172.584229
596.447266	2141.467529
595.225586	2204.520264
594.004883	2218.432373
592.782227	2224.154785
591.560547	2199.188477
590.337891	2188.549072
589.116211	2165.643799
587.892578	2124.345459
586.669922	2136.212158
585.447266	2160.337402
584.223633	2151.758301
583.000000	2135.010010
581.776367	2112.139648
580.551758	2179.139404
579.327148	2166.479004
578.102539	2200.778564
576.877930	2090.143066
575.653320	2142.810791
574.427734	2134.246826
573.202148	2182.806396
571.976562	2186.475830
570.750977	2247.242432
569.524414	2171.382812
568.297852	2185.244385
567.071289	2139.995850
565.844727	2221.102295
564.617188	2122.893555
563.390625	2140.827148
562.163086	2199.485352
560.934570	2172.601807
559.707031	2184.408447
558.478516	2200.281250
557.250000	2106.256592
556.021484	2126.207275
554.791992	2123.773438
553.563477	2198.627930
552.333984	2216.516113
551.104492	2179.503418
549.874023	2181.126465
548.644531	2196.975342
547.414062	2166.082764
546.183594	2218.496826
544.952148	2128.706543
543.721680	2075.504883
542.490234	2196.941162
541.258789	2196.528076
540.027344	2165.669678
538.794922	2140.910889
537.562500	2099.929688
536.330078	2131.991455
535.097656	2127.533936
533.865234	2123.078125
532.631836	2128.760986
531.398438	2134.441406
530.165039	2071.214355
528.931641	2172.136963
527.697266	2082.590088
526.462891	2128.784180
525.228516	2136.483887
523.993164	2150.254883
522.758789	2133.655273
521.523438	2179.804688
520.288086	2118.687012
519.052734	2162.798584
517.816406	2101.706787
516.580078	2230.746826
515.343750	2173.709229
514.107422	2153.083252
512.870117	2073.847168
511.633789	2123.979492
510.396484	2062.963379
509.158203	2155.501709
507.920898	2144.996826
506.682617	2069.875244
505.444336	2121.979492
504.206055	2105.430664
502.967773	2173.654297
501.728516	2167.191162
500.489258	2128.450439
499.250000	2160.322998
498.010742	2143.781982
496.770508	2076.838379
495.530273	2120.798340
494.290039	2130.476318
493.049805	2198.591797
491.808594	2137.732422
490.567383	2090.997070
489.326172	2084.560547
488.084961	2108.331543
486.842773	2152.226807
485.601562	2194.092285
484.359375	2109.151367
483.116211	2074.546631
481.874023	2212.968750
480.630859	2170.311768
479.387695	2125.659668
478.144531	2111.183838
476.900391	2090.682861
475.657227	2176.713623
474.413086	2146.160156
473.168945	2133.700439
471.923828	2119.236328
470.678711	2148.961914
469.434570	2170.644287
468.188477	2168.226807
466.943359	2187.889893
465.697266	2143.325928
464.452148	2156.966553
463.205078	2240.815430
461.958984	2089.963135
460.712891	2069.514893
459.465820	2173.382324
458.218750	2082.765381
456.970703	2120.451904
455.723633	2188.181641
454.475586	2165.730225
453.227539	2115.244141
451.979492	2144.885010
450.730469	2168.507568
449.481445	2114.045410
448.232422	2143.669189
446.983398	2041.203979
445.734375	2198.881592
444.484375	2206.467529
443.234375	2166.049561
441.984375	2123.646973
440.733398	2109.250488
439.483398	2182.811523
438.232422	2216.373779
436.980469	2072.087402
435.729492	2095.668945
434.477539	2191.147949
433.225586	2172.760254
431.973633	2166.359375
430.721680	2163.953369
429.468750	2149.572754
428.215820	2163.134766
426.962891	2128.808105
425.709961	2090.504883
424.456055	2129.997070
423.202148	2205.365967
421.948242	2163.082520
420.694336	2236.423340
419.439453	2186.178223
418.185547	2141.929688
416.930664	2278.980225
415.674805	2200.870850
414.419922	2126.773926
413.164062	2225.920410
411.908203	2199.621094
410.652344	2199.204590
409.395508	2141.082275
408.138672	2166.540039
406.881836	2219.835449
405.625000	2149.809570
404.367188	2149.402344
403.110352	2143.031494
401.852539	2178.402100
400.594727	2185.938232
399.335938	2181.550293
398.077148	2240.730957
396.818359	2206.542725
395.559570	2172.367676
394.300781	2281.149170
393.041016	2213.228271
391.781250	2302.114990
390.521484	2277.868164
389.260742	2221.889160
388.000977	2269.070801
386.740234	2108.011230
385.479492	2224.591064
384.217773	2265.798096
382.957031	2209.873779
381.695312	2280.791260
380.433594	2300.170654
379.170898	2327.465820
377.909180	2303.259033
376.646484	2292.921875
375.382812	2347.918213
374.120117	2311.845215
372.857422	2424.206299
371.593750	2297.117920
370.330078	2320.420410
369.065430	2430.737793
367.801758	2457.960693
366.537109	2568.209961
365.272461	2577.605713
364.006836	2650.240234
362.742188	2776.197266
361.476562	2981.129150
360.210938	3164.255859
358.944336	3495.424316
357.678711	3698.127930
356.412109	4133.694336
355.145508	4646.068848
353.878906	4935.264160
352.611328	5102.026367
351.343750	5495.570801
350.076172	5462.971680
348.808594	5893.761719
347.540039	6647.704590
346.272461	7336.315430
345.003906	7853.213867
343.734375	7938.415527
342.465820	7379.412598
341.196289	6349.894531
339.926758	5391.658691
338.657227	4549.946777
337.386719	3927.052490
336.116211	3660.616211
334.845703	3406.086914
333.575195	3189.033691
332.304688	3007.467773
331.033203	2881.035156
329.761719	2827.399658
328.490234	2703.014648
327.217773	2680.880615
325.945312	2698.056396
324.672852	2666.107910
323.400391	2726.495117
322.127930	2598.319092
320.854492	2658.695801
319.581055	2618.925781
318.307617	2587.021973
317.033203	2574.754883
315.759766	2635.089844
314.485352	2550.234375
313.209961	2551.710205
311.935547	2576.717285
310.660156	2646.808350
309.384766	2640.423828
308.109375	2602.683838
306.833984	2662.932129
305.557617	2629.120361
304.281250	2755.937256
303.004883	2626.160645
301.727539	2760.761719
300.450195	2779.812012
299.172852	2873.230225
297.895508	2949.000732
296.618164	3042.350586
295.339844	3329.321045
294.061523	3518.394531
292.783203	3766.057129
291.503906	3851.359863
290.225586	4051.952881
288.946289	4060.952148
287.666992	4144.195312
286.386719	4092.614014
285.106445	4187.538086
283.826172	4124.250977
282.545898	4141.036133
281.265625	4050.453613
279.984375	3938.437012
278.703125	3787.437500
277.421875	3648.200684
276.139648	3540.225342
274.858398	3718.965332
273.576172	3811.846191
272.293945	3953.426758
271.010742	4104.698730
269.727539	4437.139648
268.444336	4611.640625
267.161133	5245.787109
265.877930	5860.215820
264.593750	6760.647461
263.309570	8015.055664
262.025391	9835.401367
260.740234	12456.834961
259.456055	15935.323242
258.170898	20604.972656
256.884766	25440.105469
255.599609	28785.779297
254.313477	29445.205078
253.027344	26107.828125
251.741211	21391.853516
250.455078	16864.216797
249.167969	13092.090820
247.880859	10714.079102
246.593750	8692.360352
245.305664	7451.945312
244.017578	6468.248535
242.729492	5704.247070
241.441406	5140.409668
240.153320	4667.973633
238.864258	4335.381348
237.575195	3929.218994
236.286133	3798.553223
234.996094	3456.623779
233.706055	3329.974609
232.416016	3182.056396
231.125977	3080.695801
229.835938	3020.054688
228.544922	2870.343262
227.253906	2736.180664
225.962891	2611.749268
224.670898	2506.722412
223.378906	2496.566650
222.086914	2515.438477
220.794922	2377.602051
219.501953	2421.634277
218.209961	2283.868164
216.916992	2302.766113
215.623047	2178.606934
214.330078	2243.903076
213.036133	2160.382080
211.742188	2177.356445
210.448242	2149.897217
209.153320	2103.135742
207.858398	2110.456543
206.563477	2073.372803
205.268555	2069.115723
203.972656	2095.736572
202.676758	1973.782715
201.380859	2019.701660
200.084961	2013.528931
198.788086	2107.630127
197.492188	2045.532715
196.194336	2095.257568
194.897461	2081.365967
193.600586	2055.918457
192.302734	1945.716919
191.004883	1985.791992
189.706055	2002.743042
188.408203	2023.538086
187.109375	2000.050659
185.809570	1966.949097
184.510742	1978.117676
183.210938	2016.215942
181.912109	1973.512451
180.611328	2013.520020
179.311523	1997.751953
178.010742	1991.601807
176.709961	2016.206421
175.409180	2000.446533
174.108398	1978.928833
172.806641	2032.335205
171.504883	2010.819336
170.203125	2041.156738
168.900391	2035.005859
167.598633	2082.601807
166.295898	2028.468018
164.993164	2022.322754
163.689453	2058.383301
162.385742	1946.745850
161.082031	1994.312500
159.778320	1951.750610
158.474609	2010.799072
157.169922	1995.081177
155.865234	1960.207886
154.559570	2021.136230
153.254883	1911.570435
151.949219	1899.713257
150.643555	2006.569946
149.337891	2054.042236
148.031250	2021.110962
146.724609	2047.512817
145.417969	1989.723755
144.111328	1962.562012
142.803711	2052.070801
141.497070	2001.962280
140.188477	2024.518433
138.880859	1947.675171
137.572266	1975.965942
136.264648	1994.692505
134.955078	1975.206787
133.646484	1946.178833
132.336914	1964.900146
131.028320	1916.793579
129.717773	1840.073608
128.408203	1917.965332
127.097656	1946.217529
125.787109	1877.166626
124.476562	1815.771484
123.166016	1765.841553
121.854492	1862.738037
120.542969	1807.099487
119.231445	1797.222656
117.918945	1650.154419
116.607422	1590.778198
115.294922	1457.139282
113.981445	1262.611084
112.668945	1132.894531
111.355469	987.998657
110.041992	843.158386
108.728516	711.694275
107.414062	603.111450
106.099609	439.406738
104.785156	325.212524
103.470703	252.894394
102.155273	211.021622
100.839844	129.249619
99.524414	110.221107
