#Wave		#Intensity
1998.884766	8669.360352
1997.916992	8643.527344
1996.949219	8740.166992
1995.981445	8650.844727
1995.012695	8589.953125
1994.044922	8722.690430
1993.076172	8981.850586
1992.107422	8753.197266
1991.138672	8731.030273
1990.168945	8706.291016
1989.200195	8764.094727
1988.230469	8772.881836
1987.260742	8779.086914
1986.291016	8999.250977
1985.321289	8879.121094
1984.350586	8795.110352
1983.380859	8785.847656
1982.410156	8915.693359
1981.439453	8749.299805
1980.468750	8814.727539
1979.497070	8792.592773
1978.526367	8788.484375
1977.554688	8879.608398
1976.583984	8777.698242
1975.612305	8863.645508
1974.639648	8844.091797
1973.667969	8919.708984
1972.696289	8802.432617
1971.723633	8780.327148
1970.750977	8796.790039
1969.778320	8751.561523
1968.805664	8811.708008
1967.832031	8907.803711
1966.859375	8790.650391
1965.885742	8979.178711
1964.912109	8818.397461
1963.938477	8901.585938
1962.964844	8874.361328
1961.991211	8811.212891
1961.016602	8945.681641
1960.041992	8879.976562
1959.067383	8873.294922
1958.092773	8825.579102
1957.118164	8906.097656
1956.142578	9014.791016
1955.167969	8764.558594
1954.192383	8929.625977
1953.216797	9117.697266
1952.241211	8964.938477
1951.264648	8891.644531
1950.289062	8992.541992
1949.312500	9006.334961
1948.335938	9104.615234
1947.359375	9049.266602
1946.382812	8986.258789
1945.406250	9087.048828
1944.428711	9136.631836
1943.451172	8986.665039
1942.473633	8941.614258
1941.496094	9159.972656
1940.518555	8984.510742
1939.541016	8980.383789
1938.562500	9098.940430
1937.583984	9002.798828
1936.605469	9169.854492
1935.626953	8997.096680
1934.648438	9072.146484
1933.668945	8945.431641
1932.690430	9209.400391
1931.710938	8990.805664
1930.731445	8981.577148
1929.751953	8898.346680
1928.771484	8853.416016
1927.791992	9109.515625
1926.811523	8906.431641
1925.831055	9085.928711
1924.850586	9066.492188
1923.870117	9197.463867
1922.888672	9272.317383
1921.908203	9189.149414
1920.926758	9001.548828
1919.945312	9203.766602
1918.963867	9016.227539
1917.982422	9001.917969
1917.000000	9198.935547
1916.018555	9166.778320
1915.036133	9116.815430
1914.053711	9171.204102
1913.071289	8892.272461
1912.087891	9096.766602
1911.105469	9125.695312
1910.122070	9075.781250
1909.138672	8997.917969
1908.155273	9240.379883
1907.171875	9032.891602
1906.187500	9143.121094
1905.204102	9197.416016
1904.219727	9332.980469
1903.235352	9189.115234
1902.250977	9278.924805
1901.266602	9094.495117
1900.281250	9245.212891
1899.296875	9215.674805
1898.311523	9110.018555
1897.326172	8973.953125
1896.340820	9314.837891
1895.354492	9275.162109
1894.369141	9250.714844
1893.382812	9261.771484
1892.396484	9092.841797
1891.410156	9212.904297
1890.423828	9198.620117
1889.436523	9224.877930
1888.450195	9220.728516
1887.462891	9211.513672
1886.475586	9161.786133
1885.488281	9132.330078
1884.500977	9280.082031
1883.512695	9156.969727
1882.525391	9233.809570
1881.537109	9333.393555
1880.548828	9202.747070
1879.560547	9304.829102
1878.571289	9272.853516
1877.583008	9293.981445
1876.593750	9413.688477
1875.604492	9391.818359
1874.615234	9266.350586
1873.625977	9363.259766
1872.635742	9422.243164
1871.646484	9324.616211
1870.656250	9146.217773
1869.666016	9402.136719
1868.675781	9397.963867
1867.684570	9408.934570
1866.694336	9334.104492
1865.703125	9203.794922
1864.711914	9272.811523
1863.720703	9266.139648
1862.729492	9085.477539
1861.738281	9139.349609
1860.746094	9374.696289
1859.753906	9483.945312
1858.762695	9212.654297
1857.769531	9377.319336
1856.777344	9431.091797
1855.785156	9265.730469
1854.791992	9505.841797
1853.798828	9390.877930
1852.805664	9401.815430
1851.812500	9447.983398
1850.819336	9453.874023
1849.825195	9326.418945
1848.831055	9400.245117
1847.837891	9461.468750
1846.842773	9427.118164
1845.848633	9380.208008
1844.854492	9484.135742
1843.859375	9198.472656
1842.864258	9541.111328
1841.869141	9551.997070
1840.874023	9434.770508
1839.878906	9536.083984
1838.883789	9574.584961
1837.887695	9427.288086
1836.891602	9337.776367
1835.895508	9393.858398
1834.899414	9522.690430
1833.902344	9320.310547
1832.906250	9531.885742
1831.909180	9276.907227
1830.912109	9493.429688
1829.915039	9672.270508
1828.917969	9617.930664
1827.919922	9445.819336
1826.922852	9614.549805
1825.924805	9379.865234
1824.926758	9618.683594
1823.928711	9544.364258
1822.929688	9590.261719
1821.931641	9631.135742
1820.932617	9411.671875
1819.933594	9465.075195
1818.934570	9591.023438
1817.935547	9451.739258
1816.935547	9660.189453
1815.936523	9528.443359
1814.936523	9549.271484
1813.936523	9632.591797
1812.936523	9708.384766
1811.935547	9616.707031
1810.935547	9694.973633
1809.934570	9445.939453
1808.933594	9674.077148
1807.932617	9619.929688
1806.931641	9533.340820
1805.929688	9566.614258
1804.928711	9355.260742
1803.926758	9485.882812
1802.924805	9569.049805
1801.922852	9722.039062
1800.919922	9455.931641
1799.917969	9596.416992
1798.915039	9644.596680
1797.912109	9563.122070
1796.909180	9608.796875
1795.906250	9629.534180
1794.903320	9697.605469
1793.899414	9461.721680
1792.895508	9631.920898
1791.891602	9667.579102
1790.887695	9631.017578
1789.883789	9497.378906
1788.878906	9667.450195
1787.875000	9705.564453
1786.870117	9676.485352
1785.865234	9674.780273
1784.859375	9737.746094
1783.854492	9673.858398
1782.848633	9585.129883
1781.843750	9580.955078
1780.837891	9589.208008
1779.832031	9475.689453
1778.825195	9503.834961
1777.819336	9549.360352
1776.812500	9746.379883
1775.805664	9806.746094
1774.798828	9621.282227
1773.791992	9629.515625
1772.784180	9724.617188
1771.777344	9633.565430
1770.769531	9803.067383
1769.761719	9667.379883
1768.753906	9581.345703
1767.746094	9656.531250
1766.737305	9682.101562
1765.729492	9610.983398
1764.720703	9621.680664
1763.711914	9699.283203
1762.702148	9737.214844
1761.693359	9505.115234
1760.683594	9753.593750
1759.674805	9682.535156
1758.665039	9732.821289
1757.654297	9810.320312
1756.644531	9655.136719
1755.634766	9695.500977
1754.624023	9772.963867
1753.613281	9701.974609
1752.602539	9611.223633
1751.591797	9777.681641
1750.580078	9842.711914
1749.569336	9672.878906
1748.557617	9846.652344
1747.545898	9674.407227
1746.534180	9566.459961
1745.522461	9628.998047
1744.509766	9656.935547
1743.497070	9712.025391
1742.484375	9616.491211
1741.471680	9649.352539
1740.458984	9469.948242
1739.446289	9663.217773
1738.432617	9696.052734
1737.418945	9709.140625
1736.405273	9635.902344
1735.391602	9727.904297
1734.377930	9583.189453
1733.363281	9869.903320
1732.348633	9670.993164
1731.334961	9664.356445
1730.319336	9586.274414
1729.304688	9712.670898
1728.290039	9757.748047
1727.274414	9849.594727
1726.258789	9618.891602
1725.243164	9784.576172
1724.227539	9620.415039
1723.211914	9665.466797
1722.195312	9646.537109
1721.178711	9652.210938
1720.163086	9731.663086
1719.145508	9808.628906
1718.128906	9720.847656
1717.112305	9564.271484
1716.094727	9855.037109
1715.077148	9669.005859
1714.059570	9851.551758
1713.041992	9717.168945
1712.024414	9631.951172
1711.005859	9853.693359
1709.987305	9685.009766
1708.968750	9734.842773
1707.950195	9850.919922
1706.931641	9915.426758
1705.912109	9761.570312
1704.893555	9853.050781
1703.874023	9689.449219
1702.854492	9783.361328
1701.833984	9776.727539
1700.814453	9887.748047
1699.793945	9856.590820
1698.774414	9693.130859
1697.753906	9762.459961
1696.732422	9861.156250
1695.711914	9692.882812
1694.691406	9786.659180
1693.669922	9841.232422
1692.648438	9800.328125
1691.626953	9673.786133
1690.605469	9921.643555
1689.583008	9866.067383
1688.560547	9663.756836
1687.539062	9789.209961
1686.516602	9785.031250
1685.493164	9766.186523
1684.470703	9654.468750
1683.447266	9748.065430
1682.424805	9817.194336
1681.401367	9815.455078
1680.377930	9774.637695
1679.353516	9853.492188
1678.330078	10000.682617
1677.305664	10006.234375
1676.281250	9772.594727
1675.256836	9905.078125
1674.232422	9849.646484
1673.207031	10043.053711
1672.182617	9936.398438
1671.157227	9890.743164
1670.131836	9774.399414
1669.106445	9818.982422
1668.080078	9722.189453
1667.054688	9873.986328
1666.028320	9747.979492
1665.001953	9982.539062
1663.975586	9902.833008
1662.949219	9752.537109
1661.921875	10006.446289
1660.895508	9807.500000
1659.868164	9949.354492
1658.840820	10003.557617
1657.813477	9975.021484
1656.785156	9756.759766
1655.757812	9830.423828
1654.729492	9780.046875
1653.701172	9929.047852
1652.672852	9662.332031
1651.643555	9813.729492
1650.615234	9848.436523
1649.585938	9790.811523
1648.556641	9844.942383
1647.527344	9826.195312
1646.498047	9800.169922
1645.467773	9902.824219
1644.438477	9842.811523
1643.408203	9710.011719
1642.377930	9992.184570
1641.346680	9791.476562
1640.316406	9906.167969
1639.285156	9746.772461
1638.254883	9749.892578
1637.223633	9845.133789
1636.192383	9680.985352
1635.160156	9688.960938
1634.128906	9801.122070
1633.096680	9571.658203
1632.064453	9603.869141
1631.032227	9916.988281
1630.000000	9828.060547
1628.966797	9760.951172
1627.934570	9662.400391
1626.901367	9815.564453
1625.868164	9816.240234
1624.833984	9744.341797
1623.800781	9793.403320
1622.766602	9963.362305
1621.733398	9770.581055
1620.699219	9776.096680
1619.665039	9711.517578
1618.629883	9743.624023
1617.595703	9737.060547
1616.560547	9875.441406
1615.525391	9856.779297
1614.490234	9731.869141
1613.455078	9667.364258
1612.418945	9619.780273
1611.382812	9651.860352
1610.347656	9908.350586
1609.311523	9660.492188
1608.274414	9808.335938
1607.238281	9753.531250
1606.201172	9720.448242
1605.164062	9672.911133
1604.126953	9729.043945
1603.089844	9843.000977
1602.052734	9619.556641
1601.014648	9750.356445
1599.977539	9584.820312
1598.939453	9737.253906
1597.901367	9696.994141
1596.862305	9928.802734
1595.824219	9671.879883
1594.785156	9595.550781
1593.746094	9771.908203
1592.707031	9512.743164
1591.667969	9883.891602
1590.627930	9723.402344
1589.588867	9603.848633
1588.548828	9806.491211
1587.508789	9732.633789
1586.468750	9733.304688
1585.427734	9784.435547
1584.387695	9876.388672
1583.346680	9680.068359
1582.305664	9805.627930
1581.264648	9638.203125
1580.222656	9770.926758
1579.181641	9769.187500
1578.139648	9837.043945
1577.097656	9876.082031
1576.055664	9773.565430
1575.013672	9894.152344
1573.970703	9743.704102
1572.928711	9746.763672
1571.885742	9773.794922
1570.842773	9860.738281
1569.799805	9767.916992
1568.755859	9636.791016
1567.711914	9659.030273
1566.668945	9710.002930
1565.625000	9796.877930
1564.580078	9730.486328
1563.536133	9879.566406
1562.491211	9705.476562
1561.447266	9689.388672
1560.402344	9740.298828
1559.357422	9874.916992
1558.311523	9698.558594
1557.266602	9799.657227
1556.220703	9793.127930
1555.174805	9827.239258
1554.128906	9901.968750
1553.083008	9871.527344
1552.036133	10084.794922
1550.989258	9865.618164
1549.943359	9761.160156
1548.896484	9871.651367
1547.848633	9774.391602
1546.801758	9789.357422
1545.753906	9825.796875
1544.706055	9611.671875
1543.658203	9774.576172
1542.610352	9653.564453
1541.562500	9902.260742
1540.513672	9650.120117
1539.464844	9820.051758
1538.416016	9694.349609
1537.367188	9756.966797
1536.318359	9600.342773
1535.268555	9901.192383
1534.219727	9837.494141
1533.169922	9802.396484
1532.119141	9848.269531
1531.069336	9770.329102
1530.019531	9854.274414
1528.968750	9807.297852
1527.917969	9976.864258
1526.867188	9782.385742
1525.816406	9559.432617
1524.764648	9626.691406
1523.713867	9869.876953
1522.662109	9727.854492
1521.610352	9721.363281
1520.557617	9888.353516
1519.505859	9801.050781
1518.453125	9666.267578
1517.400391	9847.427734
1516.347656	9672.312500
1515.294922	9779.803711
1514.242188	9868.263672
1513.188477	9897.355469
1512.134766	9750.832031
1511.081055	9822.640625
1510.027344	9922.889648
1508.973633	9809.642578
1507.918945	9694.064453
1506.865234	9739.750977
1505.810547	9809.125000
1504.755859	9805.000977
1503.700195	9838.792969
1502.645508	9709.095703
1501.589844	9901.601562
1500.534180	9954.304688
1499.478516	9722.832031
1498.422852	9766.077148
1497.366211	9799.836914
1496.310547	9743.651367
1495.253906	9786.867188
1494.197266	9896.311523
1493.139648	9844.867188
1492.083008	9573.497070
1491.025391	9947.750977
1489.967773	9778.117188
1488.910156	9707.820312
1487.852539	9807.705078
1486.794922	9803.586914
1485.736328	9714.421875
1484.677734	9854.406250
1483.619141	9689.691406
1482.560547	9874.491211
1481.501953	9629.564453
1480.442383	9816.668945
1479.382812	9555.320312
1478.323242	9872.142578
1477.263672	9594.363281
1476.204102	9708.219727
1475.143555	9819.676758
1474.083008	9471.320312
1473.023438	9736.009766
1471.961914	9753.122070
1470.901367	9633.547852
1469.840820	9789.682617
1468.779297	9846.822266
1467.717773	9779.110352
1466.656250	9673.745117
1465.593750	9735.582031
1464.532227	9531.393555
1463.469727	9633.244141
1462.407227	9763.295898
1461.344727	9719.197266
1460.282227	9670.409180
1459.219727	9539.321289
1458.156250	9572.884766
1457.092773	9618.190430
1456.029297	9510.687500
1454.965820	9584.190430
1453.901367	9530.776367
1452.837891	9644.187500
1451.773438	9781.047852
1450.708984	9776.945312
1449.643555	9606.128906
1448.579102	9616.145508
1447.513672	9759.952148
1446.449219	9776.976562
1445.382812	9582.816406
1444.317383	9757.048828
1443.251953	9691.967773
1442.185547	9587.041992
1441.119141	9442.292969
1440.052734	9867.266602
1438.986328	9715.487305
1437.919922	9627.035156
1436.852539	9571.417969
1435.786133	9499.421875
1434.718750	9724.913086
1433.650391	9662.281250
1432.583008	9475.578125
1431.514648	9731.383789
1430.447266	9476.858398
1429.378906	9606.205078
1428.310547	9513.232422
1427.241211	9591.060547
1426.172852	9739.026367
1425.103516	9664.786133
1424.034180	9539.136719
1422.964844	9584.175781
1421.894531	9531.037109
1420.825195	9503.622070
1419.754883	9497.242188
1418.684570	9642.700195
1417.614258	9547.548828
1416.543945	9345.016602
1415.472656	9695.873047
1414.402344	9498.054688
1413.331055	9571.031250
1412.259766	9601.980469
1411.187500	9469.607422
1410.116211	9516.890625
1409.043945	9746.063477
1407.971680	9741.981445
1406.899414	9570.044922
1405.827148	9545.016602
1404.753906	9622.537109
1403.681641	9767.601562
1402.608398	9623.738281
1401.535156	9575.424805
1400.460938	9524.798828
1399.387695	9432.279297
1398.313477	9693.644531
1397.239258	9624.402344
1396.165039	9464.427734
1395.090820	9451.092773
1394.016602	9419.151367
1392.941406	9570.965820
1391.866211	9559.943359
1390.791016	9683.775391
1389.715820	9503.039062
1388.639648	9596.622070
1387.564453	9478.707031
1386.488281	9669.840820
1385.412109	9695.976562
1384.334961	9466.625000
1383.258789	9506.719727
1382.181641	9574.660156
1381.105469	9644.897461
1380.028320	9545.686523
1378.950195	9523.084961
1377.873047	9495.850586
1376.794922	9686.668945
1375.716797	9513.305664
1374.638672	9393.335938
1373.560547	9352.233398
1372.482422	9575.389648
1371.403320	9311.787109
1370.324219	9395.843750
1369.245117	9380.251953
1368.166016	9410.990234
1367.086914	9270.345703
1366.006836	9412.232422
1364.926758	9445.263672
1363.846680	9369.495117
1362.766602	9286.811523
1361.685547	9257.374023
1360.605469	9396.820312
1359.524414	9390.501953
1358.443359	9485.936523
1357.362305	9454.169922
1356.280273	9480.207031
1355.199219	9337.512695
1354.117188	9631.618164
1353.035156	9507.430664
1351.953125	9360.186523
1350.870117	9420.858398
1349.788086	9497.672852
1348.705078	9348.200195
1347.622070	9288.806641
1346.539062	9460.227539
1345.455078	9393.912109
1344.372070	9311.469727
1343.288086	9466.645508
1342.204102	9524.902344
1341.119141	9202.670898
1340.035156	9516.857422
1338.950195	9247.757812
1337.866211	9460.418945
1336.781250	9299.723633
1335.695312	9457.007812
1334.610352	9390.807617
1333.524414	9303.905273
1332.439453	9189.402344
1331.353516	9383.424805
1330.266602	9400.145508
1329.180664	9306.398438
1328.093750	9304.719727
1327.006836	9319.143555
1325.919922	9370.363281
1324.833008	9272.087891
1323.746094	9242.824219
1322.658203	9213.571289
1321.570312	9375.092773
1320.482422	9217.139648
1319.394531	9316.568359
1318.306641	9365.422852
1317.217773	9221.335938
1316.128906	9196.708008
1315.040039	9374.126953
1313.951172	9227.819336
1312.861328	9334.021484
1311.772461	9286.443359
1310.682617	9245.763672
1309.592773	9225.744141
1308.502930	9313.520508
1307.412109	9208.653320
1306.322266	9218.453125
1305.231445	9292.429688
1304.140625	9231.165039
1303.048828	9298.238281
1301.958008	9159.102539
1300.866211	9356.721680
1299.774414	9398.542969
1298.682617	9286.940430
1297.590820	9225.741211
1296.499023	9189.741211
1295.406250	9208.676758
1294.313477	9266.500977
1293.220703	9225.936523
1292.127930	9221.981445
1291.034180	9195.160156
1289.941406	9355.830078
1288.847656	9322.134766
1287.753906	9389.015625
1286.659180	9149.665039
1285.565430	9234.830078
1284.470703	9303.973633
1283.375977	9286.303711
1282.281250	9216.119141
1281.186523	9157.375977
1280.090820	9128.328125
1278.996094	9279.586914
1277.900391	9239.117188
1276.804688	9084.590820
1275.708008	9128.567383
1274.612305	9024.290039
1273.515625	9296.278320
1272.418945	9112.214844
1271.322266	8916.821289
1270.225586	9229.701172
1269.127930	9089.040039
1268.030273	9117.010742
1266.933594	9090.305664
1265.834961	9111.433594
1264.737305	9175.813477
1263.639648	8973.824219
1262.541016	9186.148438
1261.442383	9088.908203
1260.343750	9235.152344
1259.244141	9076.517578
1258.145508	9018.013672
1257.045898	9141.450195
1255.946289	9042.031250
1254.846680	9067.671875
1253.746094	9116.030273
1252.646484	9141.646484
1251.545898	9160.438477
1250.445312	9133.791992
1249.344727	9311.554688
1248.243164	9123.670898
1247.142578	8992.611328
1246.041016	9165.762695
1244.939453	9184.526367
1243.837891	8944.611328
1242.735352	9194.809570
1241.633789	8979.929688
1240.531250	9078.085938
1239.428711	9094.580078
1238.326172	9104.266602
1237.222656	9070.883789
1236.119141	9137.224609
1235.016602	9115.176758
1233.913086	9061.420898
1232.808594	9163.964844
1231.705078	9078.515625
1230.600586	9176.490234
1229.496094	9063.904297
1228.391602	9114.316406
1227.287109	8999.518555
1226.181641	9187.934570
1225.077148	9050.543945
1223.971680	9116.751953
1222.866211	9024.648438
1221.759766	9249.094727
1220.654297	9227.073242
1219.547852	9166.637695
1218.441406	9106.224609
1217.334961	9030.018555
1216.228516	8908.664062
1215.121094	9099.009766
1214.013672	9056.714844
1212.906250	9145.373047
1211.798828	9224.970703
1210.691406	9182.674805
1209.583008	9126.855469
1208.474609	9190.620117
1207.366211	8967.911133
1206.257812	9250.425781
1205.149414	9025.532227
1204.040039	8823.261719
1202.930664	9076.346680
1201.821289	9110.753906
1200.711914	9115.858398
1199.602539	9100.686523
1198.492188	8997.682617
1197.381836	9216.727539
1196.271484	9170.024414
1195.161133	9078.318359
1194.049805	9191.449219
1192.939453	9133.524414
1191.828125	9071.121094
1190.716797	9022.235352
1189.604492	9153.285156
1188.493164	8951.500000
1187.380859	9006.077148
1186.268555	9098.844727
1185.156250	9272.482422
1184.043945	9131.487305
1182.930664	9129.828125
1181.817383	9229.242188
1180.704102	8861.515625
1179.590820	8981.150391
1178.477539	8990.741211
1177.363281	8941.972656
1176.250000	9045.817383
1175.135742	9035.197266
1174.020508	9033.554688
1172.906250	9043.125000
1171.791016	9066.147461
1170.675781	9140.726562
1169.560547	9181.654297
1168.445312	8953.622070
1167.330078	9064.033203
1166.213867	9064.624023
1165.097656	9190.653320
1163.981445	9036.690430
1162.865234	9055.198242
1161.748047	9174.443359
1160.631836	8872.833984
1159.514648	9079.347656
1158.397461	9073.219727
1157.279297	9031.299805
1156.162109	8984.920898
1155.043945	9218.098633
1153.925781	8865.382812
1152.807617	8912.949219
1151.689453	8801.806641
1150.570312	8990.152344
1149.451172	8921.486328
1148.332031	8962.305664
1147.212891	8898.135742
1146.093750	8845.154297
1144.973633	9100.298828
1143.853516	8870.951172
1142.733398	8844.785156
1141.613281	8983.753906
1140.492188	8955.344727
1139.372070	8920.253906
1138.250977	8802.657227
1137.129883	8981.667969
1136.008789	9000.095703
1134.886719	8855.798828
1133.764648	8756.126953
1132.642578	8868.168945
1131.520508	8862.096680
1130.398438	8907.255859
1129.275391	8947.944336
1128.153320	9010.882812
1127.030273	8966.943359
1125.907227	8905.212891
1124.783203	8876.884766
1123.660156	9002.086914
1122.536133	8826.932617
1121.412109	8785.288086
1120.288086	8843.725586
1119.163086	8817.656250
1118.038086	8860.505859
1116.914062	8903.339844
1115.789062	8755.056641
1114.663086	8704.582031
1113.538086	8902.910156
1112.412109	8923.494141
1111.286133	8890.779297
1110.160156	8769.272461
1109.034180	8832.042969
1107.907227	8883.693359
1106.780273	8917.573242
1105.653320	8931.474609
1104.526367	8943.152344
1103.399414	8928.213867
1102.271484	8780.246094
1101.144531	9000.326172
1100.015625	9089.555664
1098.887695	8864.078125
1097.759766	8846.950195
1096.630859	8889.638672
1095.501953	9056.340820
1094.373047	8943.966797
1093.244141	8880.340820
1092.114258	8907.495117
1090.985352	8713.321289
1089.855469	8780.325195
1088.725586	9121.639648
1087.594727	8914.259766
1086.464844	8863.976562
1085.333984	8868.990234
1084.203125	8743.566406
1083.072266	8843.645508
1081.941406	8899.487305
1080.809570	9030.433594
1079.677734	8982.391602
1078.545898	8903.443359
1077.414062	8908.440430
1076.281250	8924.475586
1075.149414	8790.391602
1074.016602	8802.027344
1072.883789	9164.527344
1071.750000	8948.838867
1070.617188	8982.497070
1069.483398	8753.686523
1068.349609	8849.110352
1067.215820	8887.175781
1066.082031	8876.733398
1064.947266	8952.246094
1063.812500	9122.481445
1062.677734	8940.158203
1061.542969	8854.820312
1060.408203	8952.302734
1059.272461	8926.444336
1058.136719	8971.041992
1057.000977	8848.340820
1055.865234	9035.979492
1054.728516	8730.687500
1053.592773	8924.878906
1052.456055	9002.425781
1051.319336	8910.616211
1050.181641	8818.839844
1049.044922	8982.094727
1047.907227	8859.567383
1046.769531	8770.046875
1045.631836	8871.703125
1044.493164	8903.028320
1043.355469	8837.706055
1042.216797	8866.829102
1041.078125	8990.345703
1039.939453	8745.048828
1038.799805	8872.930664
1037.660156	8858.140625
1036.521484	8865.292969
1035.380859	9085.205078
1034.241211	8728.269531
1033.101562	8763.945312
1031.960938	8992.522461
1030.820312	8920.736328
1029.679688	8816.104492
1028.538086	8875.837891
1027.397461	8988.123047
1026.255859	8960.192383
1025.114258	8984.828125
1023.971680	9086.083984
1022.830078	9045.015625
1021.687500	8883.587891
1020.544922	8849.135742
1019.402344	8924.086914
1018.259766	8939.949219
1017.116211	8879.260742
1015.973633	8886.378906
1014.830078	8860.701172
1013.685547	8826.288086
1012.541992	8741.624023
1011.397461	8882.045898
1010.253906	8937.215820
1009.109375	8924.655273
1007.963867	8759.232422
1006.819336	8757.625000
1005.673828	8882.631836
1004.528320	9022.871094
1003.382812	8877.190430
1002.237305	8703.198242
1001.090820	8969.913086
999.944336	8824.321289
998.797852	8901.202148
997.651367	8919.190430
996.504883	8871.777344
995.357422	8878.866211
994.209961	9058.091797
993.062500	8849.461914
991.915039	8897.935547
990.766602	9007.369141
989.619141	8801.040039
988.470703	8893.034180
987.322266	8934.932617
986.172852	8920.234375
985.024414	8831.563477
983.875000	8921.307617
982.725586	8963.168945
981.576172	8961.521484
980.425781	9001.184570
979.276367	9014.748047
978.125977	8956.583008
976.975586	8863.670898
975.824219	8799.036133
974.673828	8816.968750
973.522461	8891.361328
972.371094	8896.241211
971.219727	8872.895508
970.067383	8871.263672
968.916016	8891.334961
967.763672	8876.681641
966.611328	8968.333984
965.458984	8999.219727
964.305664	9073.465820
963.153320	8969.891602
962.000000	8924.885742
960.845703	8879.895508
959.692383	9081.960938
958.539062	8948.126953
957.384766	8903.156250
956.230469	9044.462891
955.076172	8923.700195
953.920898	8906.903320
952.765625	8983.190430
951.611328	9165.497070
950.456055	8947.426758
949.299805	8930.636719
948.144531	8993.883789
946.988281	8825.705078
945.832031	9090.035156
944.675781	8995.403320
943.518555	8894.321289
942.362305	8968.319336
941.205078	8908.331055
940.047852	8876.447266
938.890625	8909.370117
937.732422	8978.991211
936.574219	8931.998047
935.416992	9014.540039
934.257812	8874.750977
933.099609	8905.484375
931.940430	8998.772461
930.782227	8822.391602
929.623047	8756.066406
928.462891	8916.173828
927.303711	9138.741211
926.143555	8902.110352
924.983398	8898.314453
923.823242	8954.851562
922.663086	8882.109375
921.501953	8811.547852
920.341797	9003.738281
919.180664	8780.309570
918.018555	8890.630859
916.857422	8850.250977
915.695312	8999.251953
914.533203	8917.987305
913.371094	8864.715820
912.208984	8983.521484
911.046875	8852.845703
909.883789	8995.256836
908.720703	9023.691406
907.557617	8944.658203
906.393555	8927.967773
905.230469	8896.244141
904.066406	8974.076172
902.902344	8944.501953
901.737305	9093.152344
900.573242	8814.543945
899.408203	8978.186523
898.243164	8886.399414
897.078125	8908.360352
895.913086	8988.232422
894.747070	8855.742188
893.581055	8969.904297
892.415039	8796.730469
891.249023	8990.171875
890.083008	8851.348633
888.916016	8916.140625
887.749023	8792.377930
886.582031	8981.391602
885.414062	8919.768555
884.247070	8937.391602
883.079102	8910.051758
881.911133	9060.375000
880.743164	9003.061523
879.574219	9082.704102
878.406250	9006.153320
877.237305	9045.126953
876.068359	8880.934570
874.898438	9093.097656
873.729492	9042.251953
872.559570	8901.659180
871.389648	8938.477539
870.219727	9079.968750
869.048828	8894.588867
867.877930	8984.778320
866.707031	8948.953125
865.536133	8900.331055
864.365234	9009.678711
863.193359	8988.806641
862.022461	9106.631836
860.850586	8889.484375
859.677734	9105.397461
858.505859	9078.123047
857.333008	9012.480469
856.160156	9044.920898
854.987305	9009.146484
853.814453	9118.289062
852.640625	9059.078125
851.466797	9078.703125
850.292969	9055.725586
849.119141	9034.885742
847.945312	9135.405273
846.770508	9244.400391
845.595703	9206.510742
844.420898	8819.676758
843.246094	9098.860352
842.070312	9095.049805
840.894531	9080.606445
839.718750	9157.595703
838.542969	9030.476562
837.367188	9147.829102
836.190430	9199.260742
835.013672	9129.569336
833.836914	8911.205078
832.660156	9024.243164
831.482422	9077.782227
830.304688	9141.916016
829.126953	9203.902344
827.949219	9261.621094
826.770508	9128.348633
825.592773	9270.918945
824.414062	9231.021484
823.235352	9114.793945
822.055664	9024.051758
820.876953	9117.775391
819.697266	9281.409180
818.517578	9201.281250
817.337891	9123.300781
816.157227	9115.254883
814.976562	9198.284180
813.795898	9124.582031
812.615234	9158.881836
811.434570	9172.001953
810.252930	9335.378906
809.071289	9227.848633
807.889648	9149.975586
806.708008	9347.108398
805.526367	9239.634766
804.343750	9094.139648
803.161133	9293.286133
801.978516	9114.016602
800.794922	9262.367188
799.612305	9201.488281
798.428711	9214.568359
797.245117	9303.678711
796.060547	9217.484375
794.876953	9363.564453
793.692383	9110.630859
792.507812	9260.896484
791.323242	9328.811523
790.138672	9314.420898
788.953125	9420.268555
787.767578	9237.151367
786.582031	9397.793945
785.396484	9124.097656
784.209961	9246.761719
783.023438	9086.992188
781.836914	9264.398438
780.650391	9197.373047
779.463867	9119.841797
778.276367	9113.936523
777.088867	9343.839844
775.901367	9217.908203
774.712891	9159.370117
773.525391	9391.240234
772.336914	9193.836914
771.148438	9244.715820
769.959961	9247.204102
768.770508	9319.080078
767.581055	9338.371094
766.392578	9157.974609
765.202148	9219.317383
764.012695	9160.874023
762.822266	9329.330078
761.631836	9344.398438
760.441406	9204.065430
759.250977	9353.522461
758.060547	9334.989258
756.869141	9245.105469
755.677734	9381.879883
754.486328	9174.532227
753.293945	9328.048828
752.102539	9273.883789
750.910156	9234.416016
749.716797	9322.844727
748.524414	9325.302734
747.332031	9369.672852
746.138672	9403.548828
744.945312	9347.333008
743.750977	9314.175781
742.557617	9283.125977
741.363281	9340.022461
740.168945	9311.071289
738.974609	9286.316406
737.780273	9276.217773
736.584961	9395.835938
735.389648	9339.701172
734.194336	9432.074219
732.999023	9505.593750
731.802734	9466.193359
730.607422	9173.892578
729.411133	9404.153320
728.213867	9379.418945
727.017578	9381.850586
725.820312	9294.468750
724.623047	9476.503906
723.425781	9585.395508
722.228516	9443.749023
721.030273	9398.161133
719.832031	9413.104492
718.633789	9357.106445
717.435547	9351.191406
716.237305	9397.416016
715.038086	9437.368164
713.838867	9504.406250
712.639648	9402.584961
711.439453	9521.704102
710.240234	9405.332031
709.040039	9597.316406
707.839844	9524.711914
706.638672	9370.918945
705.438477	9427.468750
704.237305	9581.834961
703.036133	9471.822266
701.834961	9532.482422
700.632812	9430.841797
699.431641	9456.124023
698.229492	9533.389648
697.026367	9533.690430
695.824219	9573.491211
694.621094	9588.333984
693.418945	9638.499023
692.214844	9445.545898
691.011719	9570.503906
689.808594	9552.102539
688.604492	9581.468750
687.400391	9504.937500
686.196289	9459.570312
684.991211	9459.880859
683.786133	9414.539062
682.581055	9558.008789
681.375977	9510.589844
680.170898	9438.301758
678.964844	9486.304688
677.758789	9461.728516
676.552734	9679.671875
675.346680	9599.115234
674.140625	9435.709961
672.933594	9632.818359
671.726562	9711.795898
670.518555	9639.575195
669.311523	9664.689453
668.103516	9820.206055
666.895508	9704.541992
665.687500	9514.426758
664.479492	9653.332031
663.270508	9829.416992
662.061523	9678.677734
660.852539	9695.478516
659.643555	9592.368164
658.433594	9594.708984
657.224609	9650.779297
656.014648	9725.422852
654.803711	9634.776367
653.593750	9616.452148
652.382812	9556.834961
651.171875	9674.795898
649.960938	9551.197266
648.750000	9584.496094
647.538086	9813.811523
646.326172	9609.794922
645.114258	9748.260742
643.902344	9742.312500
642.689453	9872.453125
641.476562	9676.822266
640.263672	9685.317383
639.050781	9512.462891
637.837891	9698.176758
636.624023	9510.962891
635.410156	9593.626953
634.196289	9643.312500
632.981445	9705.331055
631.767578	9757.034180
630.552734	9718.163086
629.337891	9726.632812
628.122070	9755.670898
626.907227	9706.536133
625.691406	9743.792969
624.475586	9783.090820
623.259766	9723.698242
622.042969	9621.164062
620.826172	9650.187500
619.609375	9810.693359
618.392578	9706.145508
617.175781	9784.426758
615.958008	9640.906250
614.740234	9749.964844
613.522461	9672.189453
612.303711	9729.893555
611.085938	9615.215820
609.867188	9779.587891
608.648438	9771.601562
607.429688	9855.902344
606.209961	9798.695312
604.990234	9723.059570
603.770508	9854.459961
602.550781	9784.989258
601.330078	9652.030273
600.110352	9762.884766
598.889648	9820.448242
597.668945	9728.508789
596.447266	9747.158203
595.225586	9710.532227
594.004883	9960.434570
592.782227	9929.919922
591.560547	9842.135742
590.337891	9793.246094
589.116211	9738.239258
587.892578	9881.580078
586.669922	9804.089844
585.447266	9767.504883
584.223633	9820.845703
583.000000	9643.298828
581.776367	10064.325195
580.551758	9931.729492
579.327148	9940.075195
578.102539	9844.298828
576.877930	9907.767578
575.653320	10067.128906
574.427734	9961.178711
573.202148	9838.948242
571.976562	9826.903320
570.750977	9874.000000
569.524414	9912.922852
568.297852	9964.061523
567.071289	9878.628906
565.844727	9787.114258
564.617188	9811.760742
563.390625	9978.984375
562.163086	9785.672852
560.934570	9753.291992
559.707031	10020.184570
558.478516	9896.177734
557.250000	10077.470703
556.021484	9981.983398
554.791992	9858.051758
553.563477	9996.537109
552.333984	9876.714844
551.104492	9978.547852
549.874023	9883.166016
548.644531	10074.381836
547.414062	10058.263672
546.183594	9981.204102
544.952148	9936.671875
543.721680	10042.437500
542.490234	9876.083008
541.258789	9886.406250
540.027344	9975.882812
538.794922	10002.416016
537.562500	9961.985352
536.330078	9842.457031
535.097656	9871.027344
533.865234	10013.142578
532.631836	9769.999023
531.398438	9985.050781
530.165039	9973.039062
528.931641	9918.479492
527.697266	9776.828125
526.462891	10054.504883
525.228516	10001.985352
523.993164	10075.017578
522.758789	10008.341797
521.523438	9887.043945
520.288086	10010.644531
519.052734	9810.486328
517.816406	9927.985352
516.580078	9851.286133
515.343750	9992.996094
514.107422	9950.680664
512.870117	9888.167969
511.633789	9981.289062
510.396484	9736.944336
509.158203	9908.843750
507.920898	9876.680664
506.682617	9945.498047
505.444336	9842.673828
504.206055	9885.229492
502.967773	9992.351562
501.728516	9800.789062
500.489258	9869.553711
499.250000	9855.591797
498.010742	10051.373047
496.770508	10039.396484
495.530273	9860.098633
494.290039	10043.673828
493.049805	9892.655273
491.808594	9850.493164
490.567383	9915.113281
489.326172	9929.355469
488.084961	10094.619141
486.842773	10060.502930
485.601562	10118.993164
484.359375	9871.552734
483.116211	10020.603516
481.874023	10111.255859
480.630859	9960.503906
479.387695	9898.293945
478.144531	9990.926758
476.900391	10013.165039
475.657227	10087.651367
474.413086	10015.414062
473.168945	9995.441406
471.923828	10106.045898
470.678711	10134.263672
469.434570	10112.270508
468.188477	10058.163086
466.943359	10184.727539
465.697266	9978.105469
464.452148	10118.681641
463.205078	10106.740234
461.958984	9954.402344
460.712891	10269.366211
459.465820	10056.905273
458.218750	10055.005859
456.970703	10153.317383
455.723633	10065.234375
454.475586	10155.491211
453.227539	10075.453125
451.979492	10043.508789
450.730469	10067.641602
449.481445	10023.698242
448.232422	10037.816406
446.983398	9967.878906
445.734375	10062.034180
444.484375	9970.112305
443.234375	9976.228516
441.984375	10280.291016
440.733398	10152.392578
439.483398	10192.450195
438.232422	9974.681641
436.980469	10006.763672
435.729492	9998.877930
434.477539	9971.021484
433.225586	10180.819336
431.973633	9955.269531
430.721680	10224.878906
429.468750	9899.610352
428.215820	10033.432617
426.962891	10009.587891
425.709961	9844.124023
424.456055	10103.525391
423.202148	10159.439453
421.948242	10041.886719
420.694336	10010.086914
419.439453	10010.185547
418.185547	10004.305664
416.930664	10056.199219
415.674805	9998.526367
414.419922	9960.789062
413.164062	10080.353516
411.908203	10195.890625
410.652344	10022.799805
409.395508	10104.475586
408.138672	9989.162109
406.881836	9969.368164
405.625000	10112.657227
404.367188	9909.917969
403.110352	10180.392578
401.852539	10065.171875
400.594727	10017.558594
399.335938	10013.673828
398.077148	10017.735352
396.818359	9914.546875
395.559570	10204.567383
394.300781	10190.721680
393.041016	9974.415039
391.781250	9926.878906
390.521484	10073.812500
389.260742	10175.061523
388.000977	9901.399414
386.740234	10113.695312
385.479492	10157.378906
384.217773	9990.919922
382.957031	9998.935547
381.695312	10216.994141
380.433594	10173.451172
379.170898	10294.332031
377.909180	9872.525391
376.646484	10066.679688
375.382812	10155.835938
374.120117	9973.791016
372.857422	10092.614258
371.593750	10128.291992
370.330078	10092.740234
369.065430	10144.226562
367.801758	10278.744141
366.537109	10063.270508
365.272461	10087.057617
364.006836	10199.768555
362.742188	10093.107422
361.476562	10150.458008
360.210938	10184.084961
358.944336	10201.899414
357.678711	10136.780273
356.412109	10413.198242
355.145508	10387.536133
353.878906	10223.751953
352.611328	10320.457031
351.343750	10521.670898
350.076172	10413.173828
348.808594	10480.208984
347.540039	10535.389648
346.272461	10629.970703
345.003906	10927.496094
343.734375	10858.428711
342.465820	10816.965820
341.196289	10452.509766
339.926758	10328.432617
338.657227	10249.685547
337.386719	10228.052734
336.116211	10298.926758
334.845703	10239.905273
333.575195	10125.821289
332.304688	10314.690430
331.033203	10114.104492
329.761719	10110.214844
328.490234	10055.214844
327.217773	9939.305664
325.945312	10129.993164
324.672852	10204.690430
323.400391	9967.029297
322.127930	9919.961914
320.854492	9953.418945
319.581055	10012.384766
318.307617	10085.067383
317.033203	9926.151367
315.759766	10016.480469
314.485352	9985.148438
313.209961	9891.064453
311.935547	9893.103516
310.660156	9938.275391
309.384766	10053.996094
308.109375	10103.039062
306.833984	10136.385742
305.557617	10093.314453
304.281250	9956.240234
303.004883	10062.053711
301.727539	10019.019531
300.450195	10044.517578
299.172852	9815.564453
297.895508	9976.115234
296.618164	10062.256836
295.339844	9937.104492
294.061523	10017.352539
292.783203	9991.979492
291.503906	10033.085938
290.225586	10185.589844
288.946289	10275.499023
287.666992	9986.318359
286.386719	10058.648438
285.106445	9970.792969
283.826172	9994.278320
282.545898	10173.946289
281.265625	9914.338867
279.984375	10066.629883
278.703125	10082.271484
277.421875	9961.343750
276.139648	9992.602539
274.858398	9863.936523
273.576172	10074.583008
272.293945	10029.773438
271.010742	9992.777344
269.727539	10072.715820
268.444336	10142.881836
267.161133	10129.258789
265.877930	10242.232422
264.593750	10298.693359
263.309570	10390.175781
262.025391	10557.533203
260.740234	10975.871094
259.456055	11432.961914
258.170898	11897.660156
256.884766	12673.374023
255.599609	13159.046875
254.313477	13082.653320
253.027344	12811.904297
251.741211	12072.880859
250.455078	11627.546875
249.167969	11188.210938
247.880859	10846.160156
246.593750	10453.748047
245.305664	10463.401367
244.017578	10271.159180
242.729492	10133.335938
241.441406	10104.232422
240.153320	10172.147461
238.864258	10063.516602
237.575195	9793.956055
236.286133	9724.218750
234.996094	9860.004883
233.706055	9714.687500
232.416016	9703.140625
231.125977	9532.719727
229.835938	9687.808594
228.544922	9713.071289
227.253906	9548.553711
225.962891	9670.635742
224.670898	9521.673828
223.378906	9454.052734
222.086914	9400.000977
220.794922	9620.679688
219.501953	9386.734375
218.209961	9516.439453
216.916992	9497.217773
215.623047	9458.671875
214.330078	9375.687500
213.036133	9514.956055
211.742188	9345.051758
210.448242	9468.819336
209.153320	9441.901367
207.858398	9569.462891
206.563477	9397.746094
205.268555	9361.205078
203.972656	9347.833984
202.676758	9392.350586
201.380859	9504.365234
200.084961	9238.317383
198.788086	9205.696289
197.492188	9389.014648
196.194336	9281.200195
194.897461	9283.277344
193.600586	9158.182617
192.302734	9281.647461
191.004883	9283.721680
189.706055	9287.720703
188.408203	9191.599609
187.109375	9249.512695
185.809570	9201.549805
184.510742	9170.922852
183.210938	9190.328125
181.912109	9217.418945
180.611328	9265.654297
179.311523	9138.898438
178.010742	9119.844727
176.709961	9039.292969
175.409180	9127.877930
174.108398	9089.624023
172.806641	9230.029297
171.504883	9214.815430
170.203125	9036.390625
168.900391	9159.446289
167.598633	9253.662109
166.295898	9167.447266
164.993164	9133.070312
163.689453	9048.830078
162.385742	9014.488281
161.082031	8972.489258
159.778320	9020.615234
158.474609	8890.454102
157.169922	9009.487305
155.865234	9124.642578
154.559570	8942.809570
153.254883	9010.047852
151.949219	8975.762695
150.643555	8928.086914
149.337891	8859.373047
148.031250	8815.565430
146.724609	8932.513672
145.417969	8860.009766
144.111328	8917.606445
142.803711	8965.618164
141.497070	8828.137695
140.188477	8860.852539
138.880859	8853.416992
137.572266	8647.239258
136.264648	8708.628906
134.955078	8664.930664
133.646484	8781.678711
132.336914	8472.557617
131.028320	8553.023438
129.717773	8211.615234
128.408203	8295.916016
127.097656	8137.860840
125.787109	7783.374023
124.476562	7905.853516
123.166016	7843.311035
121.854492	7633.984863
120.542969	7203.617188
119.231445	7181.267578
117.918945	6781.639160
116.607422	6134.498047
115.294922	5718.081055
113.981445	5092.341309
112.668945	4337.367676
111.355469	3670.253174
110.041992	3168.981201
108.728516	2599.396729
107.414062	2007.200562
106.099609	1597.842651
104.785156	1222.875122
103.470703	931.716187
102.155273	655.877991
100.839844	477.083160
99.524414	368.670593
