#Wave		#Intensity
1998.884766	28692.068359
1997.916992	28852.230469
1996.949219	28656.074219
1995.981445	28630.421875
1995.012695	28744.199219
1994.044922	28721.119141
1993.076172	28685.140625
1992.107422	28713.685547
1991.138672	28579.675781
1990.168945	28564.375000
1989.200195	28590.345703
1988.230469	28353.273438
1987.260742	28585.533203
1986.291016	28848.644531
1985.321289	28866.808594
1984.350586	28650.466797
1983.380859	28740.798828
1982.410156	28686.841797
1981.439453	28498.970703
1980.468750	29034.781250
1979.497070	28882.958984
1978.526367	28666.832031
1977.554688	28751.914062
1976.583984	28672.271484
1975.612305	28667.267578
1974.639648	28615.962891
1973.667969	28827.017578
1972.696289	28932.564453
1971.723633	28631.837891
1970.750977	29004.728516
1969.778320	28845.453125
1968.805664	29135.941406
1967.832031	29174.535156
1966.859375	28899.710938
1965.885742	28871.550781
1964.912109	29051.404297
1963.938477	28902.552734
1962.964844	29182.451172
1961.991211	29051.591797
1961.016602	29136.335938
1960.041992	29097.894531
1959.067383	28949.158203
1958.092773	29344.214844
1957.118164	29141.634766
1956.142578	29003.220703
1955.167969	29362.169922
1954.192383	29013.593750
1953.216797	28926.523438
1952.241211	29057.263672
1951.264648	29054.750000
1950.289062	29346.779297
1949.312500	29408.232422
1948.335938	29305.800781
1947.359375	29106.128906
1946.382812	29316.037109
1945.406250	29451.660156
1944.428711	29507.919922
1943.451172	29124.162109
1942.473633	29039.783203
1941.496094	29451.535156
1940.518555	29528.205078
1939.541016	29359.439453
1938.562500	29234.179688
1937.583984	29277.623047
1936.605469	29420.693359
1935.626953	29188.197266
1934.648438	29147.335938
1933.668945	29448.677734
1932.690430	29494.591797
1931.710938	29417.958984
1930.731445	29397.500000
1929.751953	29593.957031
1928.771484	29591.332031
1927.791992	29354.017578
1926.811523	29364.187500
1925.831055	29277.449219
1924.850586	29177.992188
1923.870117	29580.757812
1922.888672	29595.972656
1921.908203	29407.316406
1920.926758	29636.574219
1919.945312	29710.357422
1918.963867	29478.480469
1917.982422	29677.042969
1917.000000	29323.039062
1916.018555	29750.664062
1915.036133	29569.839844
1914.053711	29518.859375
1913.071289	29137.138672
1912.087891	29518.701172
1911.105469	29884.871094
1910.122070	29378.677734
1909.138672	29696.433594
1908.155273	29759.869141
1907.171875	29658.078125
1906.187500	29579.191406
1905.204102	29632.449219
1904.219727	29464.681641
1903.235352	29774.460938
1902.250977	29985.095703
1901.266602	29624.392578
1900.281250	29791.822266
1899.296875	29806.908203
1898.311523	30083.361328
1897.326172	29646.773438
1896.340820	29923.156250
1895.354492	29671.896484
1894.369141	29798.560547
1893.382812	29714.742188
1892.396484	30011.195312
1891.410156	29886.814453
1890.423828	29648.445312
1889.436523	29719.257812
1888.450195	29521.529297
1887.462891	29417.578125
1886.475586	29670.714844
1885.488281	29994.654297
1884.500977	29776.759766
1883.512695	29490.603516
1882.525391	29768.851562
1881.537109	29725.681641
1880.548828	29631.933594
1879.560547	29861.951172
1878.571289	29884.531250
1877.583008	29790.800781
1876.593750	29542.904297
1875.604492	29724.751953
1874.615234	29580.556641
1873.625977	29911.394531
1872.635742	30209.277344
1871.646484	30062.542969
1870.656250	29936.060547
1869.666016	30347.392578
1868.675781	29837.208984
1867.684570	29844.593750
1866.694336	30053.847656
1865.703125	29871.966797
1864.711914	29841.500000
1863.720703	30461.742188
1862.729492	30196.666016
1861.738281	29901.429688
1860.746094	30261.691406
1859.753906	29981.666016
1858.762695	30117.517578
1857.769531	29978.701172
1856.777344	30119.541016
1855.785156	29917.806641
1854.791992	30078.750000
1853.798828	30514.060547
1852.805664	29932.259766
1851.812500	30158.546875
1850.819336	30213.644531
1849.825195	30444.832031
1848.831055	30686.000000
1847.837891	30663.007812
1846.842773	30627.447266
1845.848633	30760.345703
1844.854492	30372.861328
1843.859375	30226.785156
1842.864258	30314.449219
1841.869141	30243.802734
1840.874023	30323.894531
1839.878906	30474.279297
1838.883789	30388.572266
1837.887695	30606.675781
1836.891602	30548.585938
1835.895508	30181.818359
1834.899414	30713.498047
1833.902344	30901.281250
1832.906250	30675.111328
1831.909180	30401.371094
1830.912109	30345.876953
1829.915039	30227.724609
1828.917969	30560.806641
1827.919922	30442.654297
1826.922852	30868.291016
1825.924805	30582.271484
1824.926758	30469.183594
1823.928711	30521.429688
1822.929688	30573.654297
1821.931641	30771.064453
1820.932617	30627.982422
1819.933594	30447.410156
1818.934570	30589.685547
1817.935547	30706.892578
1816.935547	30931.615234
1815.936523	30923.673828
1814.936523	30645.683594
1813.936523	30785.294922
1812.936523	30754.882812
1811.935547	30647.005859
1810.935547	30766.550781
1809.934570	30513.808594
1808.933594	30685.785156
1807.932617	30870.185547
1806.931641	30652.513672
1805.929688	30886.783203
1804.928711	30848.898438
1803.926758	30798.546875
1802.924805	30438.808594
1801.922852	30453.410156
1800.919922	30645.099609
1799.917969	30619.753906
1798.915039	30826.304688
1797.912109	30721.156250
1796.909180	30890.226562
1795.906250	30421.253906
1794.903320	30792.140625
1793.899414	30756.824219
1792.895508	30728.990234
1791.891602	30359.984375
1790.887695	30556.322266
1789.883789	30650.519531
1788.878906	31003.542969
1787.875000	30617.324219
1786.870117	30686.576172
1785.865234	30910.041016
1784.859375	30869.773438
1783.854492	31152.808594
1782.848633	31070.240234
1781.843750	30500.449219
1780.837891	30823.166016
1779.832031	30541.888672
1778.825195	30618.500000
1777.819336	30988.220703
1776.812500	30664.833984
1775.805664	30388.744141
1774.798828	30842.726562
1773.791992	30814.947266
1772.784180	30826.888672
1771.777344	30781.748047
1770.769531	30945.041016
1769.761719	30726.242188
1768.753906	30470.314453
1767.746094	30779.882812
1766.737305	30620.732422
1765.729492	30662.431641
1764.720703	30535.576172
1763.711914	30884.558594
1762.702148	30584.269531
1761.693359	30432.718750
1760.683594	30670.074219
1759.674805	30756.289062
1758.665039	30926.654297
1757.654297	30824.654297
1756.644531	30789.513672
1755.634766	30571.265625
1754.624023	30637.623047
1753.613281	30605.003906
1752.602539	30619.390625
1751.591797	30589.257812
1750.580078	30937.416016
1749.569336	30645.205078
1748.557617	30827.632812
1747.545898	30757.943359
1746.534180	30782.160156
1745.522461	30559.345703
1744.509766	30674.970703
1743.497070	30570.781250
1742.484375	30641.919922
1741.471680	30725.375000
1740.458984	30487.951172
1739.446289	30702.185547
1738.432617	30815.189453
1737.418945	30898.550781
1736.405273	30895.558594
1735.391602	31134.224609
1734.377930	30909.298828
1733.363281	30706.638672
1732.348633	30508.976562
1731.334961	30895.384766
1730.319336	30840.652344
1729.304688	30623.363281
1728.290039	30701.687500
1727.274414	31016.375000
1726.258789	30816.398438
1725.243164	30781.414062
1724.227539	30566.781250
1723.211914	30960.005859
1722.195312	31109.527344
1721.178711	30779.335938
1720.163086	30877.189453
1719.145508	30884.025391
1718.128906	30785.142578
1717.112305	30968.968750
1716.094727	31029.849609
1715.077148	30889.218750
1714.059570	30849.361328
1713.041992	30546.693359
1712.024414	30978.437500
1711.005859	30958.226562
1709.987305	30952.750000
1708.968750	31094.550781
1707.950195	31008.064453
1706.931641	30951.050781
1705.912109	30825.365234
1704.893555	30775.761719
1703.874023	31135.724609
1702.854492	30958.578125
1701.833984	31002.130859
1700.814453	30771.142578
1699.793945	31231.326172
1698.774414	30995.476562
1697.753906	30781.757812
1696.732422	30717.525391
1695.711914	30797.800781
1694.691406	31100.861328
1693.669922	31168.798828
1692.648438	30759.419922
1691.626953	30839.626953
1690.605469	30699.595703
1689.583008	31024.416016
1688.560547	30933.316406
1687.539062	31025.656250
1686.516602	31003.046875
1685.493164	30909.552734
1684.470703	30926.076172
1683.447266	30686.000000
1682.424805	31210.761719
1681.401367	31212.562500
1680.377930	30950.578125
1679.353516	31177.085938
1678.330078	31293.640625
1677.305664	30877.984375
1676.281250	31180.042969
1675.256836	31186.720703
1674.232422	31166.554688
1673.207031	30858.544922
1672.182617	30984.783203
1671.157227	30979.291016
1670.131836	31049.382812
1669.106445	30653.849609
1668.080078	31167.550781
1667.054688	30876.917969
1666.028320	31007.882812
1665.001953	30851.357422
1663.975586	31067.519531
1662.949219	30825.808594
1661.921875	31122.240234
1660.895508	30921.984375
1659.868164	31191.519531
1658.840820	31037.552734
1657.813477	31270.476562
1656.785156	31157.900391
1655.757812	30909.167969
1654.729492	31093.353516
1653.701172	30531.091797
1652.672852	30797.921875
1651.643555	30850.787109
1650.615234	30876.902344
1649.585938	30669.777344
1648.556641	30941.248047
1647.527344	30945.472656
1646.498047	31117.238281
1645.467773	30740.269531
1644.438477	30914.437500
1643.408203	31006.027344
1642.377930	30660.818359
1641.346680	30410.347656
1640.316406	31008.923828
1639.285156	30511.109375
1638.254883	30833.033203
1637.223633	30308.757812
1636.192383	30402.755859
1635.160156	30712.406250
1634.128906	30551.878906
1633.096680	30706.345703
1632.064453	30548.296875
1631.032227	30390.302734
1630.000000	30266.261719
1628.966797	30643.382812
1627.934570	30548.384766
1626.901367	30257.396484
1625.868164	30680.289062
1624.833984	30624.035156
1623.800781	30517.009766
1622.766602	30552.699219
1621.733398	30124.144531
1620.699219	30307.351562
1619.665039	30558.167969
1618.629883	30620.402344
1617.595703	30247.707031
1616.560547	30532.216797
1615.525391	30596.833984
1614.490234	30584.150391
1613.455078	30477.308594
1612.418945	30356.019531
1611.382812	30080.302734
1610.347656	30152.175781
1609.311523	30168.529297
1608.274414	30245.183594
1607.238281	30261.511719
1606.201172	30316.416016
1605.164062	30405.054688
1604.126953	30329.742188
1603.089844	29849.550781
1602.052734	30306.906250
1601.014648	30258.148438
1599.977539	30546.646484
1598.939453	30011.359375
1597.901367	30547.818359
1596.862305	30010.312500
1595.824219	30156.623047
1594.785156	30391.927734
1593.746094	30215.673828
1592.707031	30065.947266
1591.667969	29925.892578
1590.627930	29860.441406
1589.588867	30391.347656
1588.548828	30251.306641
1587.508789	29669.031250
1586.468750	30103.550781
1585.427734	29809.849609
1584.387695	30191.333984
1583.346680	29993.798828
1582.305664	30303.064453
1581.264648	29889.474609
1580.222656	30297.076172
1579.181641	29830.826172
1578.139648	30180.693359
1577.097656	30273.695312
1576.055664	29762.113281
1575.013672	30042.242188
1573.970703	30065.669922
1572.928711	30240.144531
1571.885742	30237.154297
1570.842773	30071.177734
1569.799805	29941.205078
1568.755859	30182.660156
1567.711914	30232.380859
1566.668945	30080.890625
1565.625000	30140.187500
1564.580078	30043.832031
1563.536133	29722.486328
1562.491211	30332.306641
1561.447266	30358.011719
1560.402344	30362.169922
1559.357422	30055.343750
1558.311523	30140.873047
1557.266602	30023.107422
1556.220703	30244.890625
1555.174805	30174.955078
1554.128906	30157.625000
1553.083008	30114.013672
1552.036133	30130.146484
1550.989258	30045.943359
1549.943359	29988.042969
1548.896484	30092.537109
1547.848633	30175.507812
1546.801758	30203.544922
1545.753906	29830.615234
1544.706055	30619.902344
1543.658203	30385.404297
1542.610352	30041.261719
1541.562500	29928.580078
1540.513672	29954.238281
1539.464844	30242.136719
1538.416016	30339.238281
1537.367188	30136.015625
1536.318359	30392.746094
1535.268555	30041.875000
1534.219727	30177.048828
1533.169922	30062.111328
1532.119141	30259.140625
1531.069336	30248.976562
1530.019531	30319.746094
1528.968750	29990.675781
1527.917969	30087.634766
1526.867188	29963.314453
1525.816406	30269.554688
1524.764648	30366.410156
1523.713867	30146.992188
1522.662109	29944.292969
1521.610352	30050.658203
1520.557617	29935.974609
1519.505859	30023.292969
1518.453125	29832.632812
1517.400391	29946.062500
1516.347656	29608.248047
1515.294922	29913.994141
1514.242188	29607.166016
1513.188477	29656.464844
1512.134766	29546.751953
1511.081055	30070.566406
1510.027344	29903.882812
1508.973633	29663.732422
1507.918945	30002.277344
1506.865234	30250.603516
1505.810547	29699.980469
1504.755859	30019.373047
1503.700195	29386.048828
1502.645508	29845.164062
1501.589844	29451.343750
1500.534180	29654.496094
1499.478516	29566.314453
1498.422852	29771.738281
1497.366211	29534.437500
1496.310547	29602.523438
1495.253906	29599.593750
1494.197266	29367.179688
1493.139648	29771.144531
1492.083008	29467.830078
1491.025391	29427.089844
1489.967773	29253.970703
1488.910156	29513.474609
1487.852539	29248.230469
1486.794922	29469.833984
1485.736328	29362.974609
1484.677734	29492.357422
1483.619141	29215.494141
1482.560547	29644.724609
1481.501953	29804.671875
1480.442383	29419.322266
1479.382812	29272.460938
1478.323242	29333.287109
1477.263672	29401.167969
1476.204102	29558.650391
1475.143555	29258.580078
1474.083008	29170.818359
1473.023438	29406.048828
1471.961914	29318.289062
1470.901367	29499.205078
1469.840820	29182.916016
1468.779297	29205.957031
1467.717773	29490.425781
1466.656250	29211.980469
1465.593750	29543.431641
1464.532227	29229.763672
1463.469727	29565.798828
1462.407227	29325.183594
1461.344727	29446.978516
1460.282227	29309.972656
1459.219727	29441.130859
1458.156250	29341.796875
1457.092773	29437.632812
1456.029297	29333.630859
1454.965820	29076.900391
1453.901367	29215.027344
1452.837891	28963.105469
1451.773438	29054.220703
1450.708984	28774.234375
1449.643555	28886.482422
1448.579102	28935.298828
1447.513672	29246.994141
1446.449219	28934.312500
1445.382812	29107.453125
1444.317383	28966.164062
1443.251953	29521.564453
1442.185547	29002.679688
1441.119141	29321.052734
1440.052734	29074.328125
1438.986328	28764.404297
1437.919922	29145.919922
1436.852539	28983.707031
1435.786133	29086.267578
1434.718750	28975.650391
1433.650391	29228.048828
1432.583008	29199.390625
1431.514648	28936.646484
1430.447266	29181.890625
1429.378906	29288.980469
1428.310547	29012.318359
1427.241211	28630.486328
1426.172852	28957.464844
1425.103516	28931.222656
1424.034180	28979.802734
1422.964844	28644.998047
1421.894531	28967.060547
1420.825195	28702.480469
1419.754883	28685.644531
1418.684570	28750.570312
1417.614258	28719.716797
1416.543945	29106.855469
1415.472656	28660.375000
1414.402344	28776.609375
1413.331055	28876.462891
1412.259766	28798.939453
1411.187500	28730.775391
1410.116211	28783.929688
1409.043945	28433.599609
1407.971680	28582.384766
1406.899414	28947.927734
1405.827148	28455.570312
1404.753906	28361.898438
1403.681641	28829.802734
1402.608398	28463.529297
1401.535156	28498.009766
1400.460938	28499.875000
1399.387695	28667.052734
1398.313477	28352.279297
1397.239258	28568.298828
1396.165039	28251.328125
1395.090820	28390.505859
1394.016602	28436.580078
1392.941406	28626.839844
1391.866211	28540.300781
1390.791016	28465.417969
1389.715820	28369.638672
1388.639648	28520.257812
1387.564453	28122.410156
1386.488281	28500.707031
1385.412109	28428.214844
1384.334961	28334.843750
1383.258789	28332.068359
1382.181641	28721.660156
1381.105469	28296.341797
1380.028320	28293.572266
1378.950195	28230.468750
1377.873047	28385.470703
1376.794922	28317.732422
1375.716797	28189.720703
1374.638672	28101.171875
1373.560547	28119.296875
1372.482422	28135.097656
1371.403320	28236.638672
1370.324219	28463.265625
1369.245117	28189.406250
1368.166016	28365.000000
1367.086914	28070.410156
1366.006836	27965.792969
1364.926758	28129.753906
1363.846680	28161.720703
1362.766602	28089.539062
1361.685547	27869.298828
1360.605469	27989.201172
1359.524414	27977.220703
1358.443359	28066.994141
1357.362305	28265.402344
1356.280273	28126.234375
1355.199219	27894.662109
1354.117188	28012.111328
1353.035156	28092.550781
1351.953125	28325.419922
1350.870117	27869.943359
1349.788086	28054.273438
1348.705078	27977.646484
1347.622070	28120.337891
1346.539062	27979.101562
1345.455078	27593.318359
1344.372070	28174.347656
1343.288086	27795.585938
1342.204102	27809.025391
1341.119141	27981.562500
1340.035156	27854.328125
1338.950195	27711.003906
1337.866211	27604.605469
1336.781250	27841.566406
1335.695312	27871.103516
1334.610352	27937.480469
1333.524414	27656.087891
1332.439453	27713.267578
1331.353516	27717.476562
1330.266602	27606.599609
1329.180664	27817.939453
1328.093750	27605.841797
1327.006836	27476.636719
1325.919922	27864.986328
1324.833008	27629.994141
1323.746094	27615.812500
1322.658203	27626.919922
1321.570312	27559.876953
1320.482422	27667.503906
1319.394531	27448.837891
1318.306641	27822.910156
1317.217773	27680.083984
1316.128906	27606.197266
1315.040039	27488.714844
1313.951172	27639.845703
1312.861328	27538.460938
1311.772461	27287.960938
1310.682617	27257.796875
1309.592773	27422.617188
1308.502930	27236.486328
1307.412109	27254.496094
1306.322266	27325.228516
1305.231445	27400.519531
1304.140625	27301.607422
1303.048828	27326.462891
1301.958008	27266.542969
1300.866211	27289.103516
1299.774414	27382.646484
1298.682617	27375.408203
1297.590820	27386.486328
1296.499023	27081.697266
1295.406250	27083.669922
1294.313477	27218.343750
1293.220703	27133.357422
1292.127930	27238.238281
1291.034180	27118.976562
1289.941406	27082.064453
1288.847656	26997.160156
1287.753906	26905.427734
1286.659180	27305.031250
1285.565430	27270.392578
1284.470703	26977.638672
1283.375977	27173.742188
1282.281250	26967.882812
1281.186523	27127.384766
1280.090820	27083.673828
1278.996094	26711.333984
1277.900391	26733.884766
1276.804688	27132.859375
1275.708008	26842.824219
1274.612305	26799.197266
1273.515625	26933.439453
1272.418945	26912.607422
1271.322266	26734.507812
1270.225586	26971.236328
1269.127930	26772.681641
1268.030273	26592.421875
1266.933594	26690.105469
1265.834961	26621.509766
1264.737305	26552.937500
1263.639648	26677.888672
1262.541016	26814.175781
1261.442383	26868.486328
1260.343750	26620.173828
1259.244141	26472.039062
1258.145508	26890.285156
1257.045898	26528.398438
1255.946289	26516.773438
1254.846680	26386.947266
1253.746094	26643.535156
1252.646484	26511.457031
1251.545898	26490.751953
1250.445312	26206.554688
1249.344727	26571.998047
1248.243164	26503.605469
1247.142578	26446.585938
1246.041016	26639.273438
1244.939453	26557.285156
1243.837891	26375.486328
1242.735352	26429.691406
1241.633789	26517.898438
1240.531250	26218.275391
1239.428711	26113.757812
1238.326172	26170.232422
1237.222656	26609.740234
1236.119141	26244.593750
1235.016602	26321.402344
1233.913086	26425.367188
1232.808594	26284.679688
1231.705078	26347.849609
1230.600586	26379.296875
1229.496094	25964.781250
1228.391602	26353.886719
1227.287109	26290.271484
1226.181641	26251.566406
1225.077148	26056.791016
1223.971680	25995.521484
1222.866211	26264.417969
1221.759766	26350.085938
1220.654297	26257.148438
1219.547852	26148.421875
1218.441406	25978.726562
1217.334961	26215.746094
1216.228516	26025.767578
1215.121094	26438.845703
1214.013672	26219.539062
1212.906250	26259.931641
1211.798828	26343.193359
1210.691406	26415.140625
1209.583008	26067.382812
1208.474609	26107.769531
1207.366211	26184.226562
1206.257812	26037.400391
1205.149414	26255.886719
1204.040039	26384.123047
1202.930664	26286.921875
1201.821289	26133.419922
1200.711914	25957.441406
1199.602539	25941.462891
1198.492188	26085.398438
1197.381836	26082.912109
1196.271484	26388.869141
1195.161133	25931.621094
1194.049805	26232.992188
1192.939453	25895.197266
1191.828125	26196.460938
1190.716797	26103.974609
1189.604492	25914.816406
1188.493164	26134.962891
1187.380859	26098.738281
1186.268555	26165.921875
1185.156250	26111.724609
1184.043945	25891.273438
1182.930664	26241.515625
1181.817383	25978.441406
1180.704102	25726.691406
1179.590820	25632.203125
1178.477539	25973.253906
1177.363281	25946.085938
1176.250000	25802.234375
1175.135742	25819.978516
1174.020508	26066.525391
1172.906250	25718.630859
1171.791016	25774.498047
1170.675781	25906.572266
1169.560547	26009.457031
1168.445312	26000.242188
1167.330078	26064.976562
1166.213867	25811.550781
1165.097656	25952.453125
1163.981445	25963.406250
1162.865234	25757.156250
1161.748047	25508.443359
1160.631836	25640.341797
1159.514648	25438.734375
1158.397461	25514.656250
1157.279297	25378.019531
1156.162109	25789.429688
1155.043945	25619.248047
1153.925781	25619.054688
1152.807617	25927.361328
1151.689453	25509.146484
1150.570312	25323.492188
1149.451172	25513.261719
1148.332031	25618.076172
1147.212891	25443.666016
1146.093750	25691.367188
1144.973633	25568.355469
1143.853516	25686.472656
1142.733398	25775.529297
1141.613281	25804.304688
1140.492188	25516.263672
1139.372070	25386.699219
1138.250977	25393.224609
1137.129883	25361.837891
1136.008789	25305.941406
1134.886719	25352.595703
1133.764648	25461.632812
1132.642578	25116.080078
1131.520508	25485.767578
1130.398438	25351.933594
1129.275391	25536.603516
1128.153320	25153.433594
1127.030273	25260.154297
1125.907227	25255.548828
1124.783203	25224.238281
1123.660156	25143.990234
1122.536133	25586.535156
1121.412109	25274.939453
1120.288086	25305.910156
1119.163086	25445.808594
1118.038086	25209.984375
1116.914062	25349.847656
1115.789062	25258.562500
1114.663086	25562.767578
1113.538086	25333.753906
1112.412109	25009.324219
1111.286133	25453.296875
1110.160156	25353.189453
1109.034180	25137.693359
1107.907227	25108.693359
1106.780273	25543.443359
1105.653320	25004.134766
1104.526367	25017.314453
1103.399414	25156.894531
1102.271484	25320.810547
1101.144531	25196.478516
1100.015625	25276.103516
1098.887695	24978.972656
1097.759766	25355.498047
1096.630859	25373.019531
1095.501953	25337.376953
1094.373047	25230.886719
1093.244141	25221.851562
1092.114258	25179.613281
1090.985352	25141.814453
1089.855469	25464.712891
1088.725586	25431.300781
1087.594727	25335.962891
1086.464844	25234.023438
1085.333984	25326.705078
1084.203125	25348.605469
1083.072266	25635.740234
1081.941406	25211.164062
1080.809570	25155.736328
1079.677734	25212.994141
1078.545898	25535.279297
1077.414062	25033.734375
1076.281250	25349.308594
1075.149414	25086.392578
1074.016602	25117.119141
1072.883789	25262.583984
1071.750000	25193.980469
1070.617188	24902.605469
1069.483398	25228.876953
1068.349609	25202.212891
1067.215820	25047.681641
1066.082031	25166.541016
1064.947266	24873.226562
1063.812500	25177.166016
1062.677734	25135.107422
1061.542969	25251.656250
1060.408203	25178.765625
1059.272461	25169.753906
1058.136719	24672.015625
1057.000977	24861.197266
1055.865234	25360.601562
1054.728516	24896.101562
1053.592773	25256.724609
1052.456055	24814.406250
1051.319336	25181.505859
1050.181641	25115.333984
1049.044922	24919.486328
1047.907227	25114.929688
1046.769531	25358.642578
1045.631836	25292.482422
1044.493164	25156.050781
1043.355469	25116.304688
1042.216797	25225.888672
1041.078125	25137.841797
1039.939453	24948.853516
1038.799805	25141.800781
1037.660156	25047.230469
1036.521484	24987.796875
1035.380859	25110.437500
1034.241211	25200.136719
1033.101562	25024.494141
1031.960938	25083.482422
1030.820312	25076.695312
1029.679688	24997.589844
1028.538086	25052.166016
1027.397461	24959.949219
1026.255859	24843.673828
1025.114258	24917.953125
1023.971680	24830.185547
1022.830078	25062.048828
1021.687500	24764.177734
1020.544922	25216.974609
1019.402344	24954.189453
1018.259766	24916.800781
1017.116211	25032.517578
1015.973633	24682.441406
1014.830078	24752.246094
1013.685547	24933.500000
1012.541992	24931.111328
1011.397461	24793.251953
1010.253906	24904.488281
1009.109375	24836.576172
1007.963867	24790.527344
1006.819336	24637.507812
1005.673828	24964.802734
1004.528320	24870.734375
1003.382812	24861.806641
1002.237305	24920.515625
1001.090820	24909.396484
999.944336	24852.480469
998.797852	24828.292969
997.651367	24686.382812
996.504883	24710.187500
995.357422	24762.314453
994.209961	24812.244141
993.062500	24589.828125
991.915039	24615.806641
990.766602	24667.908203
989.619141	24957.328125
988.470703	24841.716797
987.322266	24858.919922
986.172852	24860.882812
985.024414	24886.775391
983.875000	24864.800781
982.725586	24786.283203
981.576172	24788.251953
980.425781	24324.941406
979.276367	24566.111328
978.125977	24772.416016
976.975586	24843.917969
975.824219	24811.109375
974.673828	24621.912109
973.522461	24652.134766
972.371094	24808.287109
971.219727	24912.275391
970.067383	24942.425781
968.916016	25046.349609
967.763672	24898.537109
966.611328	25000.259766
965.458984	24629.101562
964.305664	24926.007812
963.153320	24804.339844
962.000000	24890.826172
960.845703	24682.511719
959.692383	24714.810547
958.539062	24686.431641
957.384766	24902.843750
956.230469	24835.453125
955.076172	24724.777344
953.920898	24568.677734
952.765625	24847.722656
951.611328	24620.234375
950.456055	24739.041016
949.299805	24868.621094
948.144531	24963.542969
946.988281	24980.574219
945.832031	24798.671875
944.675781	24891.390625
943.518555	24789.542969
942.362305	24795.783203
941.205078	24877.642578
940.047852	24944.351562
938.890625	24589.861328
937.732422	24719.218750
936.574219	24848.527344
935.416992	24772.714844
934.257812	24772.468750
933.099609	24839.115234
931.940430	24510.919922
930.782227	24702.697266
929.623047	24463.070312
928.462891	24794.941406
927.303711	24762.345703
926.143555	24710.361328
924.983398	24800.630859
923.823242	24921.033203
922.663086	24472.656250
921.501953	24858.000000
920.341797	24599.306641
919.180664	24594.771484
918.018555	24532.115234
916.857422	24716.994141
915.695312	24869.525391
914.533203	24469.062500
913.371094	24724.833984
912.208984	24636.398438
911.046875	24449.078125
909.883789	24332.773438
908.720703	24670.058594
907.557617	24448.447266
906.393555	24615.833984
905.230469	24589.810547
904.066406	24600.308594
902.902344	24408.935547
901.737305	24627.734375
900.573242	24580.253906
899.408203	24414.742188
898.243164	24498.220703
897.078125	24463.662109
895.913086	24291.824219
894.747070	24435.330078
893.581055	24102.730469
892.415039	24151.880859
891.249023	24355.347656
890.083008	24417.291016
888.916016	24402.068359
887.749023	24665.361328
886.582031	24315.945312
885.414062	24283.615234
884.247070	24636.710938
883.079102	24201.857422
881.911133	24402.867188
880.743164	24321.318359
879.574219	24271.894531
878.406250	24421.435547
877.237305	24386.978516
876.068359	24399.582031
874.898438	24495.560547
873.729492	24482.484375
872.559570	24604.056641
871.389648	24261.886719
870.219727	24443.275391
869.048828	24308.457031
867.877930	24506.853516
866.707031	24598.410156
865.536133	24435.880859
864.365234	24565.837891
863.193359	24571.964844
862.022461	24441.533203
860.850586	24533.013672
859.677734	24387.705078
858.505859	24468.494141
857.333008	24687.841797
856.160156	24352.859375
854.987305	24540.173828
853.814453	24486.623047
852.640625	24567.314453
851.466797	24503.126953
850.292969	24455.998047
849.119141	24523.871094
847.945312	24508.687500
846.770508	24802.154297
845.595703	24697.539062
844.420898	24550.406250
843.246094	24628.832031
842.070312	24628.527344
840.894531	24528.271484
839.718750	24625.789062
838.542969	24721.142578
837.367188	24523.152344
836.190430	24380.484375
835.013672	24845.515625
833.836914	24668.851562
832.660156	24702.511719
831.482422	24608.751953
830.304688	24735.824219
829.126953	24521.097656
827.949219	24894.322266
826.770508	24840.906250
825.592773	24732.351562
824.414062	24668.378906
823.235352	24791.050781
822.055664	24699.525391
820.876953	25059.574219
819.697266	24773.033203
818.517578	24677.318359
817.337891	25143.105469
816.157227	25043.121094
814.976562	24822.447266
813.795898	25097.363281
812.615234	24730.675781
811.434570	25062.658203
810.252930	24888.701172
809.071289	24649.210938
807.889648	24989.482422
806.708008	24722.562500
805.526367	24899.851562
804.343750	25108.791016
803.161133	24837.765625
801.978516	24911.363281
800.794922	25139.201172
799.612305	24916.912109
798.428711	24878.490234
797.245117	24964.693359
796.060547	24924.164062
794.876953	25113.777344
793.692383	24760.818359
792.507812	24851.197266
791.323242	24633.462891
790.138672	25086.701172
788.953125	24782.519531
787.767578	24851.732422
786.582031	25066.408203
785.396484	24713.908203
784.209961	24825.248047
783.023438	25035.589844
781.836914	24887.666016
780.650391	25038.933594
779.463867	25034.283203
778.276367	24899.074219
777.088867	25104.990234
775.901367	24609.857422
774.712891	25112.501953
773.525391	24956.332031
772.336914	25050.576172
771.148438	24869.232422
769.959961	24769.972656
768.770508	25009.281250
767.581055	25008.837891
766.392578	25075.656250
765.202148	24963.818359
764.012695	25051.628906
762.822266	25017.560547
761.631836	24748.269531
760.441406	25041.861328
759.250977	24890.236328
758.060547	25116.517578
756.869141	25025.796875
755.677734	25178.523438
754.486328	24915.787109
753.293945	24852.421875
752.102539	25044.937500
750.910156	24719.464844
749.716797	24979.019531
748.524414	24827.648438
747.332031	25131.091797
746.138672	24975.558594
744.945312	25010.712891
743.750977	24976.738281
742.557617	25131.242188
741.363281	24990.474609
740.168945	25209.808594
738.974609	25018.845703
737.780273	24915.839844
736.584961	24948.861328
735.389648	25285.173828
734.194336	25106.884766
732.999023	24679.832031
731.802734	25225.062500
730.607422	25193.193359
729.411133	25355.687500
728.213867	25296.640625
727.017578	25095.560547
725.820312	25287.220703
724.623047	25247.009766
723.425781	25081.542969
722.228516	25010.070312
721.030273	25055.501953
719.832031	25209.423828
718.633789	25432.134766
717.435547	25331.445312
716.237305	25022.236328
715.038086	25718.183594
713.838867	25277.675781
712.639648	25122.890625
711.439453	25170.308594
710.240234	25190.619141
709.040039	25344.248047
707.839844	25235.382812
706.638672	25230.677734
705.438477	25600.742188
704.237305	25269.148438
703.036133	25370.582031
701.834961	25459.490234
700.632812	25377.765625
699.431641	25501.998047
698.229492	25576.271484
697.026367	25650.515625
695.824219	25377.546875
694.621094	25482.976562
693.418945	25619.537109
692.214844	25481.781250
691.011719	25366.925781
689.808594	25337.267578
688.604492	25787.318359
687.400391	25662.083984
686.196289	25343.843750
684.991211	25478.169922
683.786133	25460.962891
682.581055	25661.603516
681.375977	25716.966797
680.170898	25720.462891
678.964844	25684.558594
677.758789	25826.953125
676.552734	25641.802734
675.346680	25641.160156
674.140625	25561.781250
672.933594	25621.226562
671.726562	25543.949219
670.518555	25775.250000
669.311523	25196.931641
668.103516	25904.312500
666.895508	25717.345703
665.687500	25917.396484
664.479492	25763.595703
663.270508	25682.248047
662.061523	25768.445312
660.852539	25862.880859
659.643555	25527.275391
658.433594	25563.843750
657.224609	25792.585938
656.014648	25806.359375
654.803711	25927.548828
653.593750	25864.871094
652.382812	25901.333984
651.171875	25830.423828
649.960938	25546.923828
648.750000	25713.445312
647.538086	25921.173828
646.326172	26033.919922
645.114258	25628.890625
643.902344	25685.964844
642.689453	25611.056641
641.476562	25810.357422
640.263672	25727.205078
639.050781	25930.527344
637.837891	25684.613281
636.624023	25871.384766
635.410156	25889.199219
634.196289	25626.953125
632.981445	25725.099609
631.767578	25640.003906
630.552734	25721.644531
629.337891	25825.886719
628.122070	25843.681641
626.907227	25840.900391
625.691406	25595.449219
624.475586	25720.193359
623.259766	25686.597656
622.042969	25667.400391
620.826172	25670.814453
619.609375	25468.765625
618.392578	25687.904297
617.175781	26093.857422
615.958008	25817.916016
614.740234	25886.988281
613.522461	25917.035156
612.303711	25698.742188
611.085938	25749.328125
609.867188	25986.582031
608.648438	25719.167969
607.429688	25535.931641
606.209961	25650.068359
604.990234	25833.859375
603.770508	25771.626953
602.550781	25924.585938
601.330078	25546.839844
600.110352	25787.863281
598.889648	25803.509766
597.668945	25909.246094
596.447266	25775.408203
595.225586	25682.558594
594.004883	26085.000000
592.782227	25969.615234
591.560547	25696.751953
590.337891	26211.455078
589.116211	26018.400391
587.892578	25782.478516
586.669922	26106.761719
585.447266	26265.371094
584.223633	25778.187500
583.000000	25998.087891
581.776367	26291.441406
580.551758	26059.812500
579.327148	25985.496094
578.102539	25919.373047
576.877930	25994.111328
575.653320	26121.882812
574.427734	26102.697266
573.202148	26124.316406
571.976562	25829.785156
570.750977	26122.664062
569.524414	26054.554688
568.297852	26037.429688
567.071289	26087.568359
565.844727	26259.949219
564.617188	26228.533203
563.390625	26064.724609
562.163086	26204.423828
560.934570	26122.126953
559.707031	26121.291016
558.478516	26179.480469
557.250000	26219.332031
556.021484	26367.003906
554.791992	26360.013672
553.563477	26326.585938
552.333984	26197.595703
551.104492	26030.021484
549.874023	26033.259766
548.644531	25989.750000
547.414062	26169.773438
546.183594	26303.001953
544.952148	25983.218750
543.721680	26163.138672
542.490234	26127.761719
541.258789	26453.750000
540.027344	26150.412109
538.794922	25989.236328
537.562500	26126.373047
536.330078	26283.740234
535.097656	26013.107422
533.865234	26375.242188
532.631836	26003.320312
531.398438	26049.103516
530.165039	26182.013672
528.931641	26134.535156
527.697266	26050.607422
526.462891	26092.291016
525.228516	26170.410156
523.993164	26129.039062
522.758789	25950.027344
521.523438	26181.945312
520.288086	26033.341797
519.052734	26301.572266
517.816406	26385.623047
516.580078	26259.308594
515.343750	26098.666016
514.107422	26130.140625
512.870117	25917.025391
511.633789	26186.988281
510.396484	25907.263672
509.158203	25946.826172
507.920898	26059.085938
506.682617	26126.875000
505.444336	26016.962891
504.206055	26010.042969
502.967773	26091.925781
501.728516	26173.777344
500.489258	26013.498047
499.250000	26155.843750
498.010742	26116.628906
496.770508	26232.687500
495.530273	26076.544922
494.290039	26152.251953
493.049805	26062.683594
491.808594	26158.509766
490.567383	26060.914062
489.326172	26271.503906
488.084961	26196.070312
486.842773	26370.314453
485.601562	26486.117188
484.359375	26265.777344
483.116211	26367.468750
481.874023	26086.878906
480.630859	26260.972656
479.387695	26165.521484
478.144531	26540.597656
476.900391	26521.517578
475.657227	26468.275391
474.413086	26507.490234
473.168945	26584.861328
471.923828	26533.642578
470.678711	26331.812500
469.434570	26411.177734
468.188477	26450.359375
466.943359	26419.271484
465.697266	26257.750000
464.452148	26519.652344
463.205078	26308.017578
461.958984	26481.558594
460.712891	26308.107422
459.465820	26279.080078
458.218750	26332.248047
456.970703	26467.570312
455.723633	26280.220703
454.475586	26359.400391
453.227539	26404.498047
451.979492	26381.484375
450.730469	26288.398438
449.481445	26349.494141
448.232422	26232.427734
446.983398	26337.535156
445.734375	26300.542969
444.484375	26357.585938
443.234375	26148.597656
441.984375	26165.650391
440.733398	26396.621094
439.483398	26245.708984
438.232422	26068.873047
436.980469	26069.937500
435.729492	26314.730469
434.477539	26231.855469
433.225586	26194.941406
431.973633	26020.271484
430.721680	25961.451172
429.468750	25946.560547
428.215820	26248.960938
426.962891	26182.144531
425.709961	26250.998047
424.456055	26261.984375
423.202148	25808.365234
421.948242	26102.525391
420.694336	26217.179688
419.439453	25927.236328
418.185547	26163.421875
416.930664	25963.242188
415.674805	26167.458984
414.419922	26035.058594
413.164062	26231.218750
411.908203	25927.660156
410.652344	26133.714844
409.395508	25967.587891
408.138672	25865.185547
406.881836	26228.271484
405.625000	26187.505859
404.367188	26283.951172
403.110352	26251.140625
401.852539	26240.205078
400.594727	25949.074219
399.335938	26268.011719
398.077148	26259.062500
396.818359	26297.779297
395.559570	26336.482422
394.300781	26111.119141
393.041016	26098.230469
391.781250	26081.375000
390.521484	26096.273438
389.260742	26115.132812
388.000977	26385.880859
386.740234	26105.230469
385.479492	26068.558594
384.217773	25970.445312
382.957031	26355.964844
381.695312	26170.642578
380.433594	26185.492188
379.170898	26002.251953
377.909180	26272.601562
376.646484	26107.232422
375.382812	26282.431641
374.120117	26265.568359
372.857422	25955.828125
371.593750	26314.958984
370.330078	26428.658203
369.065430	26360.351562
367.801758	26189.244141
366.537109	26431.406250
365.272461	26550.921875
364.006836	26877.902344
362.742188	26819.449219
361.476562	26792.626953
360.210938	27281.337891
358.944336	27598.052734
357.678711	27851.464844
356.412109	28017.917969
355.145508	28861.285156
353.878906	29126.148438
352.611328	29629.634766
351.343750	29854.796875
350.076172	29959.568359
348.808594	30285.142578
347.540039	30738.734375
346.272461	31257.197266
345.003906	31921.294922
343.734375	32210.777344
342.465820	31806.726562
341.196289	30597.273438
339.926758	29595.044922
338.657227	28624.697266
337.386719	28198.009766
336.116211	27531.375000
334.845703	27229.019531
333.575195	27068.423828
332.304688	26795.771484
331.033203	26694.314453
329.761719	26343.185547
328.490234	26379.458984
327.217773	26285.996094
325.945312	26451.957031
324.672852	26293.679688
323.400391	26337.785156
322.127930	26332.775391
320.854492	26251.185547
319.581055	26250.117188
318.307617	26099.871094
317.033203	26324.513672
315.759766	26329.314453
314.485352	26147.748047
313.209961	26409.515625
311.935547	26094.654297
310.660156	26095.568359
309.384766	25890.658203
308.109375	26142.470703
306.833984	26245.263672
305.557617	26181.494141
304.281250	26278.361328
303.004883	26081.437500
301.727539	26284.017578
300.450195	26647.042969
299.172852	26185.929688
297.895508	26603.625000
296.618164	26418.560547
295.339844	26620.876953
294.061523	27077.361328
292.783203	27557.136719
291.503906	27655.500000
290.225586	27902.376953
288.946289	27990.865234
287.666992	27848.757812
286.386719	27564.097656
285.106445	27609.625000
283.826172	27807.449219
282.545898	27487.812500
281.265625	27314.697266
279.984375	27258.746094
278.703125	27173.546875
277.421875	27076.671875
276.139648	26656.042969
274.858398	27163.853516
273.576172	27289.308594
272.293945	27215.873047
271.010742	27477.701172
269.727539	27762.812500
268.444336	28256.283203
267.161133	28615.156250
265.877930	29452.990234
264.593750	30333.341797
263.309570	31678.646484
262.025391	33755.300781
260.740234	36679.648438
259.456055	40781.976562
258.170898	45102.558594
256.884766	50849.089844
255.599609	55766.976562
254.313477	57041.460938
253.027344	54353.886719
251.741211	49014.496094
250.455078	43459.511719
249.167969	39035.375000
247.880859	35457.855469
246.593750	33402.277344
245.305664	31605.722656
244.017578	30370.873047
242.729492	29569.310547
241.441406	28358.605469
240.153320	27775.025391
238.864258	27352.667969
237.575195	27267.925781
236.286133	26710.091797
234.996094	26169.917969
233.706055	26226.941406
232.416016	25880.855469
231.125977	25780.968750
229.835938	25677.244141
228.544922	25430.234375
227.253906	25375.025391
225.962891	25089.443359
224.670898	24877.527344
223.378906	24700.525391
222.086914	24602.923828
220.794922	24687.208984
219.501953	24496.802734
218.209961	24298.732422
216.916992	24642.109375
215.623047	24328.099609
214.330078	24439.408203
213.036133	24125.554688
211.742188	24242.652344
210.448242	24168.474609
209.153320	24086.599609
207.858398	23998.962891
206.563477	23762.707031
205.268555	23800.621094
203.972656	23850.099609
202.676758	23841.673828
201.380859	23595.980469
200.084961	23585.675781
198.788086	23723.853516
197.492188	23451.328125
196.194336	23635.738281
194.897461	23598.449219
193.600586	23690.271484
192.302734	23683.806641
191.004883	23399.988281
189.706055	23343.509766
188.408203	22986.699219
187.109375	23546.314453
185.809570	23289.677734
184.510742	23152.443359
183.210938	23136.462891
181.912109	23262.826172
180.611328	23192.982422
179.311523	23138.544922
178.010742	23039.912109
176.709961	23168.113281
175.409180	23042.607422
174.108398	23455.109375
172.806641	23101.003906
171.504883	22933.328125
170.203125	23036.460938
168.900391	23189.466797
167.598633	22991.156250
166.295898	23007.855469
164.993164	22995.767578
163.689453	22885.847656
162.385742	22929.406250
161.082031	22811.867188
159.778320	22748.056641
158.474609	22672.765625
157.169922	22829.402344
155.865234	22551.013672
154.559570	22585.000000
153.254883	22507.880859
151.949219	22467.173828
150.643555	22727.083984
149.337891	22387.718750
148.031250	22481.031250
146.724609	22578.134766
145.417969	22663.718750
144.111328	22412.611328
142.803711	22398.744141
141.497070	22228.091797
140.188477	22321.320312
138.880859	22447.003906
137.572266	22029.917969
136.264648	21962.634766
134.955078	21828.517578
133.646484	21570.308594
132.336914	21541.339844
131.028320	21430.287109
129.717773	20924.156250
128.408203	20860.974609
127.097656	20339.880859
125.787109	20273.017578
124.476562	19946.783203
123.166016	19599.697266
121.854492	19071.617188
120.542969	18517.050781
119.231445	17920.769531
117.918945	16960.767578
116.607422	15871.584961
115.294922	14441.869141
113.981445	12755.609375
112.668945	10963.373047
111.355469	9525.906250
110.041992	7868.209473
108.728516	6517.520996
107.414062	5249.162109
106.099609	4116.347168
104.785156	3029.611328
103.470703	2285.556885
102.155273	1652.052124
100.839844	1148.040771
99.524414	807.654663
