#Wave		#Intensity
1998.943359	8297.460938
1997.975586	8320.709961
1997.007812	8422.573242
1996.039062	8444.346680
1995.071289	8404.145508
1994.102539	8490.450195
1993.133789	8202.477539
1992.165039	8337.817383
1991.196289	8452.469727
1990.227539	8363.287109
1989.257812	8268.977539
1988.288086	8357.791992
1987.318359	8513.612305
1986.348633	8148.648438
1985.378906	8332.801758
1984.409180	8537.505859
1983.438477	8412.344727
1982.467773	8287.225586
1981.497070	8360.473633
1980.526367	8431.120117
1979.555664	8367.855469
1978.584961	8461.644531
1977.613281	8467.889648
1976.641602	8420.091797
1975.669922	8691.352539
1974.698242	8530.342773
1973.726562	8392.537109
1972.753906	8465.648438
1971.782227	8549.018555
1970.809570	8403.568359
1969.836914	8417.522461
1968.863281	8459.740234
1967.890625	8442.847656
1966.917969	8515.872070
1965.944336	8362.846680
1964.970703	8425.586914
1963.997070	8591.006836
1963.023438	8486.823242
1962.048828	8272.309570
1961.075195	8471.028320
1960.100586	8451.589844
1959.125977	8427.025391
1958.151367	8366.562500
1957.176758	8406.131836
1956.201172	8555.937500
1955.226562	8390.378906
1954.250977	8491.435547
1953.275391	8431.012695
1952.299805	8552.523438
1951.323242	8592.017578
1950.347656	8513.677734
1949.371094	8366.223633
1948.394531	8405.728516
1947.417969	8606.494141
1946.441406	8517.967773
1945.464844	8606.045898
1944.487305	8532.901367
1943.509766	8370.247070
1942.532227	8616.880859
1941.554688	8426.138672
1940.577148	8498.812500
1939.599609	8540.785156
1938.621094	8493.286133
1937.642578	8586.353516
1936.664062	8541.416992
1935.685547	8695.752930
1934.707031	8484.794922
1933.727539	8669.729492
1932.749023	8497.147461
1931.769531	8669.250000
1930.790039	8535.012695
1929.810547	8579.454102
1928.830078	8565.197266
1927.850586	8668.290039
1926.870117	8623.414062
1925.889648	8604.055664
1924.909180	8630.596680
1923.928711	8460.838867
1922.948242	8540.918945
1921.966797	8710.162109
1920.985352	8535.382812
1920.003906	8470.204102
1919.022461	8652.104492
1918.041016	8655.683594
1917.059570	8559.963867
1916.077148	8561.011719
1915.094727	8752.948242
1914.112305	8725.968750
1913.129883	8704.086914
1912.147461	8529.581055
1911.164062	8472.132812
1910.180664	8554.567383
1909.197266	8708.164062
1908.213867	8683.760742
1907.230469	8758.490234
1906.247070	8937.380859
1905.262695	8760.504883
1904.278320	8708.164062
1903.294922	8594.885742
1902.309570	8588.301758
1901.325195	8607.109375
1900.340820	8460.906250
1899.355469	8700.541992
1898.370117	8630.501953
1897.384766	8682.270508
1896.399414	8820.271484
1895.414062	8811.117188
1894.427734	8649.814453
1893.442383	8757.321289
1892.456055	8672.133789
1891.469727	8640.199219
1890.482422	8681.764648
1889.496094	8705.580078
1888.508789	8714.187500
1887.522461	8707.594727
1886.535156	8718.729492
1885.547852	8615.926758
1884.559570	8784.021484
1883.572266	8835.632812
1882.583984	8813.839844
1881.595703	8627.597656
1880.607422	8550.196289
1879.619141	8624.573242
1878.630859	8539.612305
1877.641602	8525.472656
1876.653320	8614.981445
1875.664062	8719.622070
1874.674805	8763.579102
1873.684570	8514.441406
1872.695312	8717.561523
1871.705078	8718.558594
1870.715820	8689.251953
1869.725586	8851.837891
1868.735352	8774.554688
1867.744141	8651.869141
1866.753906	8816.898438
1865.762695	8603.419922
1864.771484	8589.296875
1863.780273	8678.585938
1862.789062	8694.714844
1861.797852	8708.316406
1860.805664	8747.121094
1859.813477	8702.740234
1858.821289	8789.409180
1857.829102	8626.621094
1856.836914	8819.071289
1855.844727	8747.002930
1854.851562	8939.363281
1853.858398	8736.378906
1852.865234	8631.637695
1851.872070	8781.130859
1850.878906	8696.548828
1849.884766	8762.952148
1848.890625	8675.886719
1847.897461	8777.479492
1846.903320	8713.073242
1845.908203	8724.113281
1844.914062	8823.129883
1843.918945	8819.066406
1842.923828	8840.132812
1841.929688	8831.042969
1840.933594	8723.990234
1839.938477	8885.705078
1838.943359	8977.053711
1837.947266	8721.903320
1836.951172	8747.982422
1835.955078	8646.055664
1834.958984	8812.660156
1833.961914	8851.252930
1832.965820	8859.730469
1831.968750	8910.840820
1830.971680	8776.375977
1829.974609	8812.439453
1828.977539	8820.916992
1827.979492	8558.719727
1826.982422	8802.781250
1825.984375	8858.856445
1824.986328	9025.126953
1823.988281	8795.634766
1822.989258	8804.104492
1821.991211	8920.223633
1820.992188	8946.189453
1819.993164	8754.412109
1818.994141	8845.455078
1817.995117	8881.426758
1816.995117	8947.401367
1815.996094	9025.857422
1814.996094	8971.759766
1813.996094	8892.679688
1812.996094	8991.099609
1811.996094	8869.557617
1810.995117	8960.450195
1809.994141	8843.952148
1808.993164	8929.820312
1807.992188	9090.581055
1806.991211	9096.472656
1805.990234	9000.002930
1804.988281	9020.883789
1803.986328	8951.913086
1802.984375	8980.280273
1801.982422	8958.741211
1800.980469	8942.198242
1799.977539	8818.422852
1798.975586	8856.765625
1797.972656	8947.448242
1796.969727	8948.365234
1795.966797	8857.073242
1794.962891	8972.623047
1793.959961	9020.868164
1792.956055	8994.372070
1791.952148	8791.066406
1790.948242	8906.545898
1789.943359	9049.368164
1788.939453	8903.408203
1787.934570	8832.158203
1786.929688	8862.949219
1785.924805	8926.069336
1784.919922	8951.857422
1783.915039	8992.556641
1782.909180	8891.514648
1781.903320	9019.219727
1780.897461	8900.809570
1779.891602	8859.478516
1778.885742	8977.182617
1777.879883	8945.789062
1776.873047	8996.372070
1775.866211	9022.103516
1774.859375	8953.474609
1773.852539	9008.993164
1772.844727	8967.692383
1771.837891	9020.707031
1770.830078	8895.056641
1769.822266	9029.929688
1768.814453	8849.754883
1767.806641	8954.829102
1766.797852	8856.551758
1765.789062	8889.696289
1764.781250	8942.657227
1763.772461	8893.995117
1762.762695	8917.203125
1761.753906	8799.199219
1760.744141	8985.885742
1759.735352	9056.115234
1758.725586	9009.950195
1757.714844	9070.249023
1756.705078	8868.167969
1755.695312	9022.504883
1754.684570	8966.480469
1753.673828	8942.634766
1752.663086	8861.910156
1751.652344	8887.547852
1750.640625	8957.680664
1749.629883	9126.667969
1748.618164	8981.706055
1747.606445	8792.313477
1746.594727	9030.419922
1745.583008	8826.263672
1744.570312	8967.956055
1743.557617	9000.943359
1742.545898	9011.699219
1741.533203	9052.073242
1740.519531	8993.708984
1739.506836	8964.976562
1738.493164	9027.541016
1737.479492	9099.949219
1736.465820	8984.890625
1735.452148	8956.178711
1734.438477	9072.939453
1733.423828	9160.078125
1732.410156	9013.047852
1731.395508	8949.851562
1730.380859	9007.400391
1729.366211	8983.638672
1728.350586	8996.829102
1727.334961	8911.516602
1726.320312	8917.327148
1725.304688	9105.291016
1724.288086	8938.787109
1723.272461	8922.443359
1722.256836	9080.782227
1721.240234	8980.785156
1720.223633	9102.166016
1719.207031	8886.628906
1718.190430	8917.018555
1717.172852	9075.216797
1716.155273	8990.052734
1715.138672	9022.864258
1714.121094	9129.366211
1713.102539	9031.955078
1712.084961	9045.092773
1711.066406	9153.989258
1710.048828	8928.961914
1709.030273	9069.750000
1708.011719	9090.233398
1706.992188	9071.449219
1705.973633	9148.349609
1704.954102	8977.483398
1703.934570	9152.470703
1702.915039	8984.115234
1701.895508	9107.555664
1700.875977	8983.387695
1699.855469	9150.895508
1698.834961	9090.470703
1697.814453	9167.255859
1696.793945	9067.658203
1695.773438	8958.298828
1694.751953	9103.625000
1693.730469	9126.494141
1692.709961	9000.047852
1691.687500	9010.690430
1690.666016	9050.691406
1689.644531	9005.053711
1688.622070	9098.850586
1687.599609	9028.765625
1686.577148	9058.953125
1685.554688	8971.787109
1684.532227	9124.181641
1683.508789	9342.504883
1682.485352	9111.176758
1681.461914	9231.708008
1680.438477	9115.277344
1679.415039	8994.002930
1678.391602	9124.255859
1677.367188	9051.845703
1676.342773	9252.823242
1675.318359	9051.079102
1674.293945	9166.588867
1673.268555	9255.223633
1672.244141	9219.437500
1671.218750	9039.788086
1670.193359	9242.989258
1669.167969	9214.536133
1668.141602	9249.461914
1667.116211	9135.728516
1666.089844	9053.707031
1665.063477	9125.181641
1664.037109	9186.887695
1663.010742	9175.518555
1661.983398	9169.022461
1660.957031	9223.384766
1659.929688	9087.888672
1658.902344	9134.945312
1657.875000	9213.612305
1656.846680	9104.947266
1655.819336	9086.307617
1654.791016	9128.466797
1653.762695	9085.516602
1652.734375	9173.843750
1651.705078	9130.900391
1650.676758	9051.522461
1649.647461	9297.726562
1648.618164	9065.314453
1647.588867	9236.139648
1646.559570	9222.360352
1645.529297	9351.824219
1644.500000	8942.369141
1643.469727	9057.274414
1642.439453	9281.330078
1641.409180	9100.154297
1640.377930	9278.036133
1639.347656	9261.837891
1638.316406	9182.600586
1637.285156	8979.750977
1636.253906	9123.590820
1635.222656	9012.914062
1634.190430	9273.002930
1633.158203	9104.196289
1632.125977	9218.844727
1631.093750	8979.875000
1630.061523	9176.829102
1629.029297	9296.244141
1627.996094	9093.694336
1626.962891	9167.099609
1625.929688	9158.212891
1624.896484	9113.041016
1623.863281	9109.002930
1622.829102	9158.168945
1621.794922	8999.379883
1620.760742	9164.584961
1619.726562	9208.879883
1618.692383	9137.162109
1617.657227	9193.526367
1616.622070	9097.678711
1615.587891	9057.416992
1614.551758	9140.328125
1613.516602	9162.847656
1612.481445	9144.321289
1611.445312	9205.449219
1610.409180	9170.028320
1609.373047	9192.525391
1608.336914	9181.241211
1607.300781	9128.959961
1606.263672	9083.930664
1605.226562	9171.522461
1604.189453	9278.368164
1603.152344	9168.260742
1602.115234	9265.429688
1601.077148	9160.181641
1600.039062	9271.769531
1599.000977	9099.120117
1597.962891	9213.085938
1596.924805	8970.688477
1595.885742	9089.450195
1594.847656	9273.151367
1593.808594	9059.747070
1592.769531	9046.105469
1591.730469	9138.307617
1590.690430	9240.097656
1589.651367	9209.598633
1588.611328	9366.633789
1587.571289	9247.183594
1586.531250	9077.305664
1585.490234	9147.776367
1584.450195	9177.379883
1583.409180	9137.313477
1582.368164	9222.144531
1581.327148	9194.089844
1580.285156	9079.618164
1579.244141	9039.595703
1578.202148	9263.576172
1577.160156	9043.575195
1576.118164	9217.093750
1575.076172	9076.333008
1574.033203	9213.811523
1572.991211	9252.931641
1571.948242	9124.225586
1570.905273	9280.794922
1569.862305	9324.674805
1568.818359	9001.943359
1567.775391	9153.659180
1566.731445	9195.141602
1565.687500	9128.844727
1564.643555	9306.792969
1563.598633	9230.922852
1562.554688	9035.405273
1561.509766	9062.511719
1560.464844	9187.706055
1559.419922	9272.187500
1558.374023	9158.121094
1557.329102	9240.186523
1556.283203	9207.457031
1555.237305	9193.862305
1554.191406	9249.584961
1553.145508	9307.676758
1552.098633	9289.292969
1551.052734	9086.977539
1550.005859	9159.396484
1548.958984	9212.685547
1547.912109	9265.955078
1546.864258	9113.916016
1545.816406	9236.396484
1544.769531	9492.462891
1543.721680	9357.164062
1542.672852	9109.799805
1541.625000	9074.785156
1540.576172	9283.004883
1539.528320	9259.891602
1538.479492	9298.761719
1537.430664	9323.318359
1536.380859	9140.559570
1535.332031	9305.696289
1534.282227	9346.911133
1533.232422	9299.993164
1532.182617	9245.948242
1531.132812	9415.708984
1530.082031	9342.619141
1529.031250	9093.446289
1527.981445	9184.620117
1526.929688	9263.867188
1525.878906	9447.742188
1524.828125	9391.357422
1523.776367	9339.748047
1522.724609	9257.251953
1521.672852	9184.291992
1520.621094	9220.674805
1519.569336	9335.453125
1518.516602	9281.522461
1517.463867	9301.241211
1516.411133	9373.197266
1515.358398	9319.287109
1514.305664	9172.813477
1513.251953	9254.246094
1512.198242	9454.303711
1511.144531	9272.292969
1510.090820	9273.007812
1509.037109	9164.620117
1507.982422	9274.436523
1506.927734	9415.036133
1505.873047	9233.193359
1504.818359	9117.778320
1503.763672	9142.214844
1502.708984	9339.597656
1501.653320	9290.550781
1500.597656	9061.522461
1499.541992	9277.756836
1498.486328	9316.346680
1497.429688	9059.029297
1496.373047	9343.782227
1495.317383	9342.110352
1494.260742	9103.853516
1493.203125	9137.707031
1492.146484	9292.163086
1491.088867	9264.490234
1490.031250	9248.648438
1488.973633	9194.991211
1487.916016	9306.786133
1486.858398	9111.362305
1485.799805	9294.005859
1484.741211	9004.170898
1483.682617	9241.084961
1482.624023	9182.762695
1481.565430	9018.224609
1480.505859	9273.890625
1479.446289	9170.752930
1478.386719	9263.492188
1477.327148	9200.497070
1476.267578	9222.436523
1475.207031	9050.991211
1474.147461	9143.683594
1473.086914	9255.202148
1472.026367	9196.977539
1470.964844	9089.285156
1469.904297	9123.000000
1468.842773	9225.017578
1467.781250	9164.482422
1466.719727	9214.648438
1465.658203	9297.758789
1464.595703	9216.055664
1463.533203	9249.708984
1462.471680	9226.873047
1461.409180	9189.928711
1460.345703	9103.597656
1459.283203	9252.489258
1458.219727	9175.583008
1457.156250	9056.384766
1456.092773	9212.256836
1455.029297	9189.453125
1453.965820	9192.505859
1452.901367	9336.520508
1451.836914	9384.175781
1450.772461	9194.609375
1449.708008	9225.834961
1448.642578	9235.918945
1447.578125	9372.753906
1446.512695	9199.750977
1445.447266	9137.093750
1444.381836	9189.414062
1443.315430	9180.729492
1442.250000	9106.381836
1441.183594	9142.264648
1440.117188	9215.644531
1439.050781	9038.196289
1437.983398	9198.277344
1436.916992	9231.773438
1435.849609	9091.900391
1434.782227	9188.643555
1433.714844	8983.255859
1432.647461	9136.176758
1431.579102	9122.832031
1430.510742	9210.136719
1429.442383	9140.620117
1428.374023	9073.466797
1427.305664	9303.429688
1426.236328	9011.738281
1425.167969	9005.443359
1424.098633	9319.463867
1423.028320	9273.375000
1421.958984	9154.849609
1420.889648	9260.698242
1419.819336	9212.308594
1418.749023	9135.904297
1417.678711	9085.216797
1416.608398	9162.979492
1415.537109	9173.007812
1414.465820	9087.326172
1413.395508	9125.369141
1412.323242	9247.402344
1411.251953	9122.091797
1410.180664	9230.084961
1409.108398	9118.814453
1408.036133	9285.062500
1406.963867	9360.328125
1405.891602	9244.431641
1404.818359	9252.091797
1403.746094	9192.177734
1402.672852	9244.107422
1401.599609	9179.556641
1400.525391	9357.226562
1399.452148	9152.973633
1398.377930	9183.919922
1397.303711	9184.596680
1396.229492	9122.439453
1395.155273	9118.472656
1394.081055	9291.306641
1393.005859	9059.372070
1391.930664	9057.743164
1390.855469	9167.717773
1389.780273	9138.172852
1388.704102	9162.095703
1387.628906	9267.343750
1386.552734	9195.974609
1385.476562	9061.911133
1384.400391	9299.503906
1383.323242	9174.757812
1382.247070	9175.429688
1381.169922	9113.424805
1380.092773	9081.613281
1379.014648	9277.218750
1377.937500	9138.666992
1376.859375	9143.981445
1375.782227	9007.821289
1374.704102	9282.136719
1373.625000	9338.425781
1372.546875	8984.414062
1371.467773	9066.228516
1370.388672	9025.206055
1369.309570	9162.583008
1368.230469	9242.003906
1367.151367	9196.337891
1366.071289	9157.634766
1364.991211	9118.945312
1363.911133	9110.359375
1362.831055	9226.743164
1361.750977	9107.078125
1360.669922	9135.511719
1359.588867	9156.996094
1358.507812	9236.285156
1357.426758	9167.570312
1356.345703	9142.801758
1355.263672	9131.909180
1354.181641	9206.522461
1353.099609	9110.134766
1352.017578	9145.454102
1350.935547	9146.116211
1349.852539	9022.080078
1348.769531	8990.439453
1347.686523	9016.519531
1346.603516	9007.970703
1345.520508	8976.348633
1344.436523	9025.487305
1343.352539	9067.687500
1342.268555	9116.791992
1341.184570	9235.053711
1340.100586	9083.533203
1339.015625	9204.063477
1337.930664	9126.350586
1336.845703	9122.400391
1335.760742	9217.515625
1334.675781	9056.918945
1333.589844	9188.857422
1332.503906	9219.436523
1331.417969	9026.695312
1330.332031	9204.601562
1329.246094	9122.395508
1328.159180	9159.864258
1327.072266	9103.000977
1325.985352	9066.857422
1324.898438	9221.596680
1323.811523	9038.293945
1322.723633	9022.869141
1321.635742	9221.202148
1320.547852	9283.881836
1319.459961	9305.181641
1318.371094	9126.621094
1317.283203	9164.017578
1316.194336	9141.696289
1315.105469	9020.658203
1314.016602	9053.461914
1312.926758	9125.270508
1311.837891	9114.444336
1310.748047	9078.383789
1309.658203	9044.630859
1308.568359	9015.476562
1307.477539	9050.536133
1306.387695	8931.978516
1305.296875	9022.052734
1304.206055	9061.674805
1303.114258	9172.314453
1302.023438	9115.674805
1300.931641	9132.352539
1299.840820	9112.380859
1298.748047	9044.333008
1297.656250	9191.502930
1296.564453	9009.020508
1295.471680	9096.642578
1294.378906	9115.590820
1293.286133	8976.684570
1292.193359	9116.870117
1291.099609	9021.462891
1290.006836	9056.414062
1288.913086	9159.932617
1287.819336	9105.708008
1286.725586	9060.643555
1285.630859	8937.914062
1284.536133	8995.690430
1283.442383	9058.013672
1282.346680	8990.153320
1281.251953	9219.120117
1280.157227	8943.531250
1279.061523	8996.687500
1277.965820	9115.998047
1276.870117	9116.630859
1275.774414	9021.458984
1274.677734	8967.373047
1273.581055	8867.702148
1272.485352	8939.050781
1271.387695	8989.858398
1270.291016	9013.300781
1269.194336	9023.062500
1268.096680	9025.985352
1266.999023	8860.355469
1265.901367	9100.146484
1264.803711	8970.993164
1263.705078	9003.516602
1262.606445	8942.708008
1261.507812	8922.883789
1260.409180	8978.149414
1259.310547	8978.798828
1258.210938	8970.349609
1257.111328	8891.409180
1256.011719	9062.592773
1254.912109	9042.765625
1253.812500	8988.853516
1252.711914	8928.144531
1251.612305	8908.351562
1250.511719	8949.896484
1249.410156	8882.412109
1248.309570	8942.113281
1247.208008	9042.657227
1246.107422	8868.505859
1245.005859	8855.551758
1243.903320	8976.476562
1242.801758	8881.834961
1241.699219	8939.199219
1240.597656	9001.079102
1239.495117	9060.667969
1238.391602	9018.219727
1237.289062	8778.590820
1236.185547	8980.957031
1235.082031	8809.394531
1233.978516	8989.027344
1232.875000	8901.329102
1231.771484	8913.302734
1230.666992	8963.761719
1229.562500	9070.794922
1228.458008	9003.513672
1227.353516	8922.678711
1226.248047	8798.884766
1225.143555	8892.296875
1224.038086	8872.589844
1222.931641	9063.188477
1221.826172	9005.023438
1220.720703	9044.077148
1219.614258	8963.334961
1218.507812	9040.795898
1217.401367	9059.488281
1216.294922	8886.173828
1215.187500	9033.616211
1214.080078	8952.946289
1212.972656	8885.851562
1211.865234	9030.955078
1210.757812	9065.423828
1209.649414	9145.006836
1208.541016	8856.841797
1207.432617	8990.565430
1206.324219	9076.882812
1205.215820	8960.244141
1204.106445	9005.958008
1202.997070	9096.731445
1201.887695	8928.321289
1200.778320	8777.997070
1199.668945	9100.787109
1198.558594	8957.241211
1197.448242	9029.924805
1196.337891	9093.576172
1195.227539	8936.603516
1194.117188	8939.480469
1193.005859	9007.613281
1191.894531	8868.738281
1190.783203	9002.090820
1189.671875	9063.425781
1188.559570	9115.745117
1187.447266	9021.913086
1186.334961	8977.565430
1185.222656	9099.538086
1184.110352	9066.426758
1182.998047	8943.465820
1181.884766	8980.023438
1180.771484	9005.339844
1179.658203	8996.966797
1178.543945	8990.840820
1177.430664	8998.183594
1176.316406	8920.248047
1175.202148	8869.264648
1174.087891	8966.355469
1172.972656	9023.039062
1171.858398	8907.032227
1170.743164	8963.706055
1169.627930	9013.632812
1168.512695	8935.791016
1167.396484	8961.054688
1166.281250	9131.936523
1165.165039	9007.074219
1164.048828	8983.039062
1162.931641	8871.683594
1161.815430	8861.114258
1160.698242	8978.135742
1159.581055	8741.514648
1158.463867	8804.812500
1157.346680	9082.854492
1156.228516	8998.440430
1155.111328	8914.057617
1153.993164	8950.445312
1152.875000	8986.820312
1151.755859	9025.416016
1150.637695	8811.474609
1149.518555	8917.116211
1148.399414	8864.112305
1147.280273	8951.837891
1146.160156	9048.462891
1145.041016	9017.790039
1143.920898	9020.611328
1142.800781	8887.288086
1141.680664	9019.556641
1140.559570	8930.902344
1139.439453	9051.959961
1138.318359	8831.747070
1137.197266	8894.802734
1136.075195	9002.423828
1134.954102	8907.164062
1133.832031	8762.909180
1132.709961	8805.876953
1131.587891	8831.004883
1130.465820	8942.992188
1129.342773	8885.687500
1128.220703	8961.997070
1127.097656	8842.375977
1125.974609	9087.824219
1124.850586	8921.490234
1123.727539	8821.964844
1122.603516	9127.344727
1121.479492	8705.315430
1120.355469	8850.495117
1119.230469	8997.843750
1118.106445	8896.170898
1116.981445	8927.885742
1115.856445	8846.260742
1114.730469	8997.945312
1113.605469	8825.262695
1112.479492	9063.509766
1111.353516	8853.128906
1110.227539	8889.254883
1109.101562	8854.336914
1107.974609	8854.940430
1106.848633	8957.611328
1105.721680	8940.447266
1104.594727	8998.703125
1103.466797	8888.394531
1102.339844	8988.765625
1101.211914	9086.882812
1100.083984	8972.184570
1098.956055	8950.602539
1097.827148	8773.931641
1096.699219	8803.342773
1095.570312	8950.128906
1094.441406	8961.780273
1093.311523	8845.014648
1092.182617	8869.962891
1091.052734	8954.657227
1089.922852	8824.678711
1088.792969	8858.464844
1087.663086	8971.870117
1086.532227	8853.016602
1085.402344	8886.777344
1084.271484	8924.948242
1083.139648	8987.417969
1082.008789	8773.617188
1080.876953	8875.863281
1079.746094	8909.587891
1078.614258	8934.464844
1077.481445	8864.372070
1076.349609	8834.047852
1075.216797	8631.544922
1074.083984	8976.490234
1072.951172	8800.515625
1071.818359	8834.208008
1070.685547	8920.830078
1069.551758	8939.047852
1068.417969	8871.258789
1067.284180	8821.132812
1066.149414	8729.141602
1065.015625	8835.537109
1063.880859	8952.911133
1062.746094	8993.131836
1061.611328	8799.850586
1060.476562	8868.714844
1059.340820	9023.426758
1058.205078	8841.251953
1057.069336	8932.081055
1055.933594	8771.995117
1054.796875	9008.022461
1053.661133	8814.982422
1052.524414	8828.765625
1051.387695	8956.895508
1050.250000	8803.545898
1049.113281	8808.529297
1047.975586	8758.563477
1046.837891	8891.005859
1045.700195	9043.172852
1044.561523	8889.946289
1043.423828	8962.992188
1042.285156	8915.237305
1041.146484	8770.898438
1040.007812	8810.998047
1038.868164	8921.312500
1037.728516	8774.856445
1036.589844	8852.227539
1035.449219	8905.442383
1034.309570	8759.069336
1033.169922	8862.711914
1032.029297	8839.165039
1030.888672	8927.411133
1029.748047	8838.117188
1028.606445	8726.944336
1027.465820	8885.262695
1026.324219	8890.204102
1025.182617	8779.082031
1024.041016	8729.305664
1022.898438	8793.375977
1021.756836	8995.307617
1020.614258	8943.328125
1019.471680	8943.876953
1018.328125	8880.988281
1017.185547	8907.791016
1016.041992	8827.438477
1014.898438	8965.738281
1013.754883	8848.245117
1012.610352	8883.773438
1011.466797	8871.218750
1010.322266	8804.052734
1009.177734	8933.491211
1008.033203	8920.932617
1006.887695	8971.698242
1005.742188	8858.717773
1004.597656	8940.031250
1003.451172	8759.448242
1002.305664	8823.295898
1001.160156	8819.495117
1000.013672	8802.608398
998.867188	8862.049805
997.720703	8792.836914
996.573242	8708.388672
995.426758	8955.244141
994.279297	8859.902344
993.131836	8636.055664
991.983398	8902.390625
990.835938	8809.288086
989.687500	8899.121094
988.539062	8753.803711
987.390625	8952.445312
986.242188	8811.522461
985.092773	8827.310547
983.944336	8843.091797
982.794922	8795.791992
981.644531	8826.794922
980.495117	8736.030273
979.344727	8903.982422
978.194336	8806.715820
977.043945	8907.229492
975.893555	8731.782227
974.742188	8912.644531
973.591797	8713.370117
972.440430	8967.997070
971.289062	8888.191406
970.136719	8923.458008
968.985352	8945.689453
967.833008	8837.723633
966.680664	8723.288086
965.528320	8706.500000
964.375000	8949.955078
963.221680	8790.027344
962.069336	8853.446289
960.915039	9014.375000
959.761719	8761.340820
958.608398	8865.894531
957.454102	8953.079102
956.299805	8860.466797
955.145508	8908.641602
953.990234	8809.575195
952.834961	8933.503906
951.680664	8819.319336
950.525391	8869.627930
949.369141	8764.150391
948.213867	9009.125000
947.057617	8812.828125
945.901367	8834.990234
944.745117	8956.589844
943.588867	8900.904297
942.431641	8869.010742
941.274414	8986.214844
940.117188	8826.860352
938.959961	8848.993164
937.801758	8931.583008
936.644531	8921.301758
935.486328	8941.245117
934.328125	8827.368164
933.168945	8786.900391
932.010742	8817.643555
930.851562	8848.375000
929.692383	8976.146484
928.533203	8886.084961
927.373047	8791.744141
926.213867	8880.655273
925.053711	8907.034180
923.893555	8883.845703
922.732422	8800.344727
921.572266	8813.800781
920.411133	8857.399414
919.250000	8793.326172
918.088867	8895.036133
916.926758	8828.826172
915.765625	8896.059570
914.603516	8894.419922
913.441406	8907.837891
912.279297	8929.852539
911.116211	8801.335938
909.953125	8720.165039
908.790039	8690.612305
907.626953	8856.643555
906.463867	8992.529297
905.299805	8844.782227
904.135742	8821.670898
902.971680	8774.944336
901.807617	8902.155273
900.643555	8730.917969
899.478516	8750.770508
898.313477	8716.965820
897.148438	8816.200195
895.982422	8767.378906
894.817383	8830.104492
893.651367	8777.008789
892.485352	8796.828125
891.319336	8803.778320
890.152344	8838.587891
888.986328	8757.671875
887.819336	8833.181641
886.652344	8643.052734
885.484375	8675.722656
884.317383	8704.097656
883.149414	8850.208008
881.981445	8844.291992
880.813477	8831.958008
879.644531	8759.718750
878.475586	8721.733398
877.307617	8839.897461
876.137695	8707.818359
874.968750	8896.497070
873.798828	8873.476562
872.629883	8677.344727
871.459961	8900.113281
870.289062	8956.154297
869.119141	8757.978516
867.948242	8792.666016
866.777344	8812.393555
865.606445	8595.138672
864.435547	8749.369141
863.263672	8922.750000
862.092773	8842.152344
860.920898	8627.183594
859.748047	8772.760742
858.576172	8741.283203
857.403320	8905.973633
856.230469	8808.398438
855.057617	8612.815430
853.884766	8830.710938
852.710938	8890.864258
851.538086	8878.568359
850.364258	8981.285156
849.189453	8866.765625
848.015625	8724.611328
846.840820	8808.141602
845.666016	8872.485352
844.491211	8936.805664
843.316406	8892.603516
842.140625	8986.673828
840.965820	8812.752930
839.790039	8817.500000
838.613281	8926.412109
837.437500	8841.866211
836.260742	8869.980469
835.083984	8827.969727
833.907227	8898.559570
832.730469	8841.691406
831.552734	8952.598633
830.375977	8904.232422
829.198242	8891.969727
828.019531	8953.991211
826.841797	8861.090820
825.663086	8940.066406
824.484375	8910.835938
823.305664	8987.652344
822.126953	8941.459961
820.947266	9170.876953
819.767578	8838.527344
818.587891	9033.970703
817.408203	8805.588867
816.228516	8962.834961
815.047852	8867.982422
813.867188	8891.749023
812.686523	8837.170898
811.504883	8996.410156
810.324219	8943.948242
809.142578	9130.615234
807.960938	8856.006836
806.779297	9127.229492
805.596680	8890.789062
804.415039	8781.303711
803.232422	8995.308594
802.048828	8923.889648
800.866211	8941.253906
799.682617	9081.158203
798.500000	9037.223633
797.315430	8944.726562
796.131836	8886.050781
794.948242	8937.184570
793.763672	9140.286133
792.579102	8923.315430
791.394531	8883.676758
790.208984	9025.491211
789.024414	9004.831055
787.838867	8880.839844
786.653320	8993.054688
785.466797	9029.332031
784.281250	9048.733398
783.094727	9051.268555
781.908203	8868.384766
780.721680	8862.525391
779.534180	8877.729492
778.347656	8871.869141
777.160156	8796.530273
775.972656	8872.783203
774.784180	9018.461914
773.596680	8985.222656
772.408203	8975.137695
771.219727	8920.882812
770.031250	8971.802734
768.841797	8835.562500
767.653320	8875.966797
766.463867	9019.350586
765.274414	8988.252930
764.083984	8839.501953
762.894531	8894.579102
761.704102	8790.008789
760.513672	8981.572266
759.322266	8784.641602
758.131836	9039.109375
756.940430	9010.144531
755.749023	9069.322266
754.557617	8887.207031
753.365234	8877.163086
752.173828	9055.875000
750.981445	8758.535156
749.789062	8826.088867
748.595703	8908.290039
747.403320	8933.876953
746.209961	8988.788086
745.016602	8704.303711
743.823242	9062.940430
742.628906	8864.406250
741.435547	8906.725586
740.241211	8829.708008
739.046875	8930.619141
737.851562	9037.770508
736.657227	8843.608398
735.461914	8940.275391
734.266602	8932.337891
733.070312	8955.766602
731.875000	9031.452148
730.678711	8910.627930
729.482422	8982.113281
728.286133	8811.195312
727.089844	8882.670898
725.892578	8868.485352
724.695312	8960.805664
723.498047	8959.136719
722.300781	8955.380859
721.102539	8924.493164
719.904297	8979.171875
718.706055	8916.995117
717.507812	8892.388672
716.308594	8976.239258
715.110352	8909.926758
713.911133	8981.233398
712.711914	9019.163086
711.511719	8832.005859
710.311523	8905.370117
709.112305	9095.367188
707.912109	9010.358398
706.710938	9025.337891
705.510742	8865.418945
704.309570	8928.297852
703.108398	8968.258789
701.907227	9074.792969
700.705078	8844.245117
699.502930	9033.966797
698.301758	8851.344727
697.098633	8874.646484
695.896484	8931.201172
694.693359	8883.806641
693.491211	8869.680664
692.287109	9115.283203
691.083984	8918.306641
689.880859	9049.571289
688.676758	9010.503906
687.472656	9201.913086
686.268555	8953.168945
685.063477	8953.573242
683.858398	8885.499023
682.654297	8877.617188
681.448242	8963.080078
680.243164	9067.176758
679.037109	8928.630859
677.832031	8947.695312
676.625977	9039.298828
675.418945	8989.946289
674.212891	8917.820312
673.005859	8928.584961
671.798828	8868.922852
670.591797	9099.199219
669.383789	8859.399414
668.176758	8890.865234
666.968750	8932.666992
665.760742	8829.603516
664.551758	8970.707031
663.343750	8977.305664
662.134766	8837.063477
660.925781	8918.122070
659.715820	8870.973633
658.506836	9204.163086
657.296875	8875.923828
656.086914	8948.647461
654.876953	9052.331055
653.666016	8870.947266
652.456055	8997.320312
651.245117	9008.026367
650.034180	9014.598633
648.822266	8895.272461
647.611328	8798.689453
646.399414	8883.693359
645.187500	8824.276367
643.974609	8966.988281
642.762695	9027.169922
641.549805	8943.018555
640.336914	8885.694336
639.124023	8904.639648
637.910156	9047.201172
636.696289	8827.147461
635.483398	8819.316406
634.268555	8862.969727
633.054688	8900.428711
631.839844	8828.775391
630.625000	9065.860352
629.410156	8780.201172
628.195312	8910.225586
626.979492	8713.149414
625.764648	8754.706055
624.548828	8847.649414
623.332031	9057.737305
622.116211	8885.444336
620.899414	8970.090820
619.682617	9007.448242
618.465820	8989.327148
617.248047	8962.998047
616.031250	8875.073242
614.813477	8988.382812
613.595703	8884.064453
612.376953	8999.381836
611.159180	8952.553711
609.940430	8930.360352
608.721680	8902.021484
607.502930	9019.298828
606.283203	8949.945312
605.063477	8911.368164
603.843750	8975.285156
602.624023	8920.323242
601.403320	8930.943359
600.183594	8830.943359
598.962891	8849.768555
597.742188	8954.588867
596.520508	8916.058594
595.299805	8922.574219
594.078125	8812.433594
592.856445	8962.197266
591.633789	8845.953125
590.412109	8967.017578
589.189453	8742.428711
587.966797	9049.528320
586.743164	8921.086914
585.520508	8925.544922
584.296875	8860.522461
583.073242	8885.419922
581.849609	8989.973633
580.625000	8871.874023
579.401367	8919.215820
578.176758	9007.370117
576.952148	8881.166992
575.726562	8957.050781
574.500977	8945.166992
573.276367	8919.007812
572.049805	8931.610352
570.824219	8907.500977
569.598633	8875.245117
568.372070	8928.618164
567.145508	8947.322266
565.917969	8880.434570
564.691406	8988.784180
563.463867	8972.836914
562.236328	9056.687500
561.008789	9038.696289
559.780273	8925.028320
558.552734	8935.564453
557.324219	8909.464844
556.094727	9019.697266
554.866211	8883.739258
553.636719	8971.561523
552.407227	8801.092773
551.177734	8933.625977
549.948242	8944.143555
548.717773	8974.980469
547.488281	8967.197266
546.256836	8975.668945
545.026367	8736.327148
543.795898	8972.293945
542.564453	8718.829102
541.333008	8810.573242
540.100586	8906.341797
538.869141	8703.763672
537.636719	8754.879883
536.404297	8840.460938
535.171875	8676.542969
533.939453	8735.745117
532.706055	8904.404297
531.472656	8862.188477
530.239258	8876.733398
529.004883	8800.091797
527.771484	8932.143555
526.537109	9033.763672
525.302734	9127.244141
524.067383	9242.961914
522.833008	9360.659180
521.597656	9510.696289
520.362305	9533.188477
519.126953	9339.187500
517.890625	9185.715820
516.654297	8927.134766
515.417969	8848.614258
514.181641	8915.685547
512.944336	8851.345703
511.708008	8807.238281
510.470703	8878.319336
509.233398	8882.708008
507.995117	8711.372070
506.756836	8707.710938
505.518555	8685.879883
504.280273	8698.374023
503.041992	8672.515625
501.802734	8725.364258
500.563477	8798.368164
499.324219	8649.458984
498.084961	8726.482422
496.844727	8720.804688
495.604492	8783.672852
494.364258	8697.360352
493.124023	8764.239258
491.882812	8812.958008
490.642578	8809.281250
489.401367	8646.493164
488.159180	8660.971680
486.917969	8858.658203
485.675781	8865.039062
484.433594	8891.542969
483.191406	8853.646484
481.948242	8785.586914
480.705078	8629.048828
479.462891	8764.172852
478.218750	8796.700195
476.975586	8827.205078
475.731445	8777.301758
474.487305	8586.748047
473.243164	8796.089844
471.999023	8766.306641
470.753906	8788.751953
469.508789	8714.804688
468.263672	8817.556641
467.018555	8811.877930
465.772461	8798.172852
464.526367	8696.185547
463.280273	8885.125977
462.034180	8729.005859
460.787109	8785.512695
459.540039	8775.833008
458.292969	8702.009766
457.045898	8712.391602
455.797852	8875.061523
454.550781	8659.012695
453.302734	8723.479492
452.053711	8657.744141
450.805664	8652.103516
449.556641	8750.566406
448.307617	8670.851562
447.058594	8627.187500
445.808594	8555.527344
444.559570	8709.945312
443.309570	8618.295898
442.059570	8790.639648
440.808594	8585.047852
439.557617	8745.338867
438.307617	8631.765625
437.055664	8686.082031
435.804688	8520.620117
434.552734	8826.612305
433.300781	8779.010742
432.048828	8625.603516
430.796875	8560.090820
429.543945	8784.008789
428.291016	8572.816406
427.038086	8639.030273
425.785156	8589.520508
424.531250	8649.721680
423.278320	8705.912109
422.023438	8600.594727
420.769531	8467.411133
419.515625	8583.388672
418.260742	8555.861328
417.005859	8550.257812
415.750000	8482.911133
414.495117	8558.968750
413.239258	8429.923828
411.983398	8709.006836
410.727539	8554.108398
409.470703	8423.146484
408.214844	8507.099609
406.958008	8575.107422
405.700195	8356.709961
404.443359	8542.034180
403.185547	8627.887695
401.927734	8532.834961
400.669922	8612.695312
399.411133	8561.391602
398.153320	8593.540039
396.894531	8415.147461
395.635742	8463.196289
394.375977	8370.265625
393.116211	8465.943359
391.857422	8559.599609
390.596680	8440.908203
389.336914	8490.887695
388.076172	8489.278320
386.815430	8448.006836
385.554688	8571.316406
384.293945	8448.768555
383.032227	8577.976562
381.770508	8697.226562
380.508789	8441.981445
379.247070	8442.360352
377.984375	8549.685547
376.721680	8542.123047
375.458984	8326.693359
374.196289	8428.039062
372.932617	8428.418945
371.668945	8428.797852
370.405273	8494.458008
369.141602	8419.666016
367.876953	8453.662109
366.613281	8359.134766
365.347656	8412.896484
364.083008	8403.393555
362.818359	8306.952148
361.552734	8240.180664
360.287109	8333.426758
359.020508	8325.919922
357.754883	8276.952148
356.488281	8277.353516
355.221680	8388.284180
353.955078	8404.450195
352.687500	8316.043945
351.419922	8306.574219
350.152344	8279.357422
348.884766	8267.924805
347.616211	8313.669922
346.348633	8365.309570
345.080078	8217.886719
343.810547	8391.685547
342.541992	8202.944336
341.272461	8260.472656
340.002930	8266.779297
338.733398	8113.607422
337.462891	8137.655273
336.193359	8328.981445
334.922852	8085.368164
333.651367	8036.614746
332.380859	8202.279297
331.109375	8186.953613
329.837891	8079.220703
328.566406	8063.922852
327.293945	8221.592773
326.022461	8284.877930
324.750000	8249.901367
323.477539	8161.900391
322.204102	8270.331055
320.930664	8258.939453
319.657227	8225.956055
318.383789	8192.985352
317.110352	8165.913574
315.835938	8195.752930
314.561523	8076.489258
313.287109	8227.938477
312.011719	8187.152344
310.737305	8262.058594
309.461914	8076.222168
308.185547	8045.286621
306.910156	8231.867188
305.633789	8081.405762
304.357422	8128.835449
303.081055	8086.161621
301.804688	8151.193848
300.527344	8118.319336
299.250000	8142.217285
297.972656	8076.088867
296.694336	7953.246582
295.416992	8194.292969
294.138672	7852.427734
292.860352	8179.438965
291.581055	8062.533691
290.301758	8092.271484
289.022461	8022.329590
287.743164	7874.257324
286.463867	8009.503906
285.183594	7986.492676
283.903320	7920.527832
282.623047	7920.970215
281.342773	7979.973633
280.061523	7956.983887
278.780273	7887.170898
277.499023	7981.262695
276.216797	7862.707031
274.935547	7962.617188
273.653320	7964.998047
272.370117	8010.265625
271.087891	7956.112793
269.804688	7929.261719
268.521484	7785.520996
267.238281	7764.556152
265.955078	8004.575195
264.670898	7833.640137
263.386719	7777.633789
262.102539	7906.562988
260.817383	7936.191406
259.533203	7872.413086
258.248047	7868.965332
256.962891	7735.204102
255.676758	7774.564453
254.390625	7833.351562
253.104492	7684.121582
251.818359	7713.750488
250.532227	7619.006836
249.245117	7726.346680
247.958008	7647.175293
246.670898	7727.279297
245.382812	7729.686523
244.095703	7706.855957
242.807617	7755.847168
241.518555	7798.997559
240.230469	7659.756348
238.941406	7782.438965
237.652344	7668.465820
236.363281	7571.986816
235.074219	7686.860352
233.784180	7623.365234
232.494141	7804.074219
231.204102	7620.451172
229.913086	7601.559570
228.622070	7683.389648
227.331055	7604.462402
226.040039	7717.237793
224.749023	7516.383301
223.457031	7431.726074
222.165039	7683.786621
220.873047	7448.229492
219.580078	7568.661621
218.287109	7542.073730
216.994141	7538.697266
215.701172	7546.920898
214.407227	7645.980469
213.114258	7516.979980
211.820312	7467.241211
210.525391	7259.125977
209.231445	7435.414062
207.936523	7418.543945
206.641602	7449.942871
205.346680	7494.840820
204.050781	7273.409180
202.754883	7297.099609
201.458984	7363.219238
200.163086	7265.375000
198.866211	7348.830078
197.569336	7225.961914
196.272461	7284.333008
194.975586	7236.685059
193.677734	7296.958008
192.379883	7274.368652
191.082031	7115.034668
189.784180	7188.775391
188.485352	7125.786133
187.187500	7214.895996
185.887695	7194.267090
184.588867	7169.797363
183.289062	7233.835938
181.989258	7203.596680
180.689453	7159.906738
179.389648	7173.916504
178.088867	7080.265137
176.788086	7150.023926
175.487305	7177.478027
174.186523	7218.371094
172.884766	7203.540039
171.583008	7125.335938
170.281250	7095.166504
168.979492	7022.771484
167.676758	7142.351074
166.374023	7041.187988
165.071289	6999.543945
163.767578	7026.976562
162.463867	7192.494141
161.160156	7106.738770
159.856445	6984.587402
158.552734	7111.679199
157.248047	7020.237793
155.943359	6827.274414
154.638672	6929.416992
153.333008	6937.664062
152.027344	6765.892090
150.721680	7005.844238
149.416016	6897.297363
148.110352	6970.617188
146.803711	6864.031738
145.497070	6908.630859
144.189453	6960.863770
142.882812	6930.839844
141.575195	6803.309082
140.267578	6878.472168
138.959961	6829.366699
137.651367	6759.257812
136.342773	6794.261719
135.034180	6873.187988
133.725586	6591.110352
132.416016	6670.044922
131.106445	6603.851074
129.796875	6478.509277
128.487305	6376.116211
127.176758	6182.174805
125.866211	6013.107910
124.555664	6109.226562
123.244141	5955.493652
121.933594	5851.391602
120.622070	5671.079590

