#Wave		#Intensity
1998.943359	10048.916992
1997.975586	9992.084961
1997.007812	9949.018555
1996.039062	9970.526367
1995.071289	9839.692383
1994.102539	9964.469727
1993.133789	9983.380859
1992.165039	9917.125977
1991.196289	9827.672852
1990.227539	9936.885742
1989.257812	10079.588867
1988.288086	10160.352539
1987.318359	10101.857422
1986.348633	10017.604492
1985.378906	9935.957031
1984.409180	10060.496094
1983.438477	9973.716797
1982.467773	10160.030273
1981.497070	10088.716797
1980.526367	9875.792969
1979.555664	10157.290039
1978.584961	10047.398438
1977.613281	10279.863281
1976.641602	10136.534180
1975.669922	10026.703125
1974.698242	10076.403320
1973.726562	9966.619141
1972.753906	10124.318359
1971.782227	10168.832031
1970.809570	10267.314453
1969.836914	9995.647461
1968.863281	10160.939453
1967.890625	10225.968750
1966.917969	10067.481445
1965.944336	10183.872070
1964.970703	10205.207031
1963.997070	10172.614258
1963.023438	10052.751953
1962.048828	10292.261719
1961.075195	10231.442383
1960.100586	10322.023438
1959.125977	10132.953125
1958.151367	10297.899414
1957.176758	10216.604492
1956.201172	10173.796875
1955.226562	10397.609375
1954.250977	10162.554688
1953.275391	10391.415039
1952.299805	10361.416016
1951.323242	10344.235352
1950.347656	10186.190430
1949.371094	10061.491211
1948.394531	10295.289062
1947.417969	10211.572266
1946.441406	10263.537109
1945.464844	10271.979492
1944.487305	10336.708008
1943.509766	10363.041016
1942.532227	10187.306641
1941.554688	10346.632812
1940.577148	10255.336914
1939.599609	10192.191406
1938.621094	10387.214844
1937.642578	10155.407227
1936.664062	10243.057617
1935.685547	10246.375977
1934.707031	10152.636719
1933.727539	10311.743164
1932.749023	10179.725586
1931.769531	10313.242188
1930.790039	10023.025391
1929.810547	10554.617188
1928.830078	10348.656250
1927.850586	10316.234375
1926.870117	10472.564453
1925.889648	10162.169922
1924.909180	10356.715820
1923.928711	10306.468750
1922.948242	10136.447266
1921.966797	10305.411133
1920.985352	10219.528320
1920.003906	10304.353516
1919.022461	10297.456055
1918.041016	10443.353516
1917.059570	10403.334961
1916.077148	10307.325195
1915.094727	10325.882812
1914.112305	10324.076172
1913.129883	10347.711914
1912.147461	10277.216797
1911.164062	10501.782227
1910.180664	10210.043945
1909.197266	10520.988281
1908.213867	10308.153320
1907.230469	10446.138672
1906.247070	10284.213867
1905.262695	10366.258789
1904.278320	10288.234375
1903.294922	10235.634766
1902.309570	10533.494141
1901.325195	10280.291016
1900.340820	10275.952148
1899.355469	10474.660156
1898.370117	10447.449219
1897.384766	10293.387695
1896.399414	10537.649414
1895.414062	10512.976562
1894.427734	10473.096680
1893.442383	10316.601562
1892.456055	10340.143555
1891.469727	10500.541992
1890.482422	10508.837891
1889.496094	10309.373047
1888.508789	10553.286133
1887.522461	10498.249023
1886.535156	10359.664062
1885.547852	10481.909180
1884.559570	10619.299805
1883.572266	10407.368164
1882.583984	10511.826172
1881.595703	10520.103516
1880.607422	10513.200195
1879.619141	10425.363281
1878.630859	10431.122070
1877.641602	10545.595703
1876.653320	10407.241211
1875.664062	10455.964844
1874.674805	10454.130859
1873.684570	10596.310547
1872.695312	10420.151367
1871.705078	10473.887695
1870.715820	10360.941406
1869.725586	10528.283203
1868.735352	10516.339844
1867.744141	10499.351562
1866.753906	10573.211914
1865.762695	10442.684570
1864.771484	10324.814453
1863.780273	10509.639648
1862.789062	10613.705078
1861.797852	10548.811523
1860.805664	10509.149414
1859.813477	10446.816406
1858.821289	10576.017578
1857.829102	10503.616211
1856.836914	10448.873047
1855.844727	10545.263672
1854.851562	10508.158203
1853.858398	10423.230469
1852.865234	10683.193359
1851.872070	10520.242188
1850.878906	10797.711914
1849.884766	10798.331055
1848.890625	10715.940430
1847.897461	10558.125977
1846.903320	10692.059570
1845.908203	10705.266602
1844.914062	10638.030273
1843.918945	10706.533203
1842.923828	10546.344727
1841.929688	10790.706055
1840.933594	10439.649414
1839.938477	10611.109375
1838.943359	10601.711914
1837.947266	10629.976562
1836.951172	10550.292969
1835.955078	10628.750977
1834.958984	10800.024414
1833.961914	10707.807617
1832.965820	10751.078125
1831.968750	10709.060547
1830.971680	10739.776367
1829.974609	10858.228516
1828.977539	10663.307617
1827.979492	10656.420898
1826.982422	10626.984375
1825.984375	10833.058594
1824.986328	10730.958008
1823.988281	10826.745117
1822.989258	10627.024414
1821.991211	10832.952148
1820.992188	10798.505859
1819.993164	10676.478516
1818.994141	10807.219727
1817.995117	10660.213867
1816.995117	10880.960938
1815.996094	10796.516602
1814.996094	10832.124023
1813.996094	10847.718750
1812.996094	10803.317383
1811.996094	10479.023438
1810.995117	10752.040039
1809.994141	10672.701172
1808.993164	10678.317383
1807.992188	10866.241211
1806.991211	10856.837891
1805.990234	10645.218750
1804.988281	10880.473633
1803.986328	10791.210938
1802.984375	10916.567383
1801.982422	10797.391602
1800.980469	11097.305664
1799.977539	10738.724609
1798.975586	10726.860352
1797.972656	10754.887695
1796.969727	10720.590820
1795.966797	10888.168945
1794.962891	10838.909180
1793.959961	10861.913086
1792.956055	10932.234375
1791.952148	10892.953125
1790.948242	10788.946289
1789.943359	10973.759766
1788.939453	10762.744141
1787.934570	10711.076172
1786.929688	10818.669922
1785.924805	10913.786133
1784.919922	10919.325195
1783.915039	10745.806641
1782.909180	10751.373047
1781.903320	10704.730469
1780.897461	11050.823242
1779.891602	10658.710938
1778.885742	10954.995117
1777.879883	10828.851562
1776.873047	10777.266602
1775.866211	10767.916992
1774.859375	10875.268555
1773.852539	10731.848633
1772.844727	10854.059570
1771.837891	10656.097656
1770.830078	10840.308594
1769.822266	10823.512695
1768.814453	10920.816406
1767.806641	10849.454102
1766.797852	10716.130859
1765.789062	10962.140625
1764.781250	10764.401367
1763.772461	10650.987305
1762.762695	10852.278320
1761.753906	11041.113281
1760.744141	10831.112305
1759.735352	10601.375000
1758.725586	10854.527344
1757.714844	10721.410156
1756.705078	10778.919922
1755.695312	10821.561523
1754.684570	10686.045898
1753.673828	10857.323242
1752.663086	10838.093750
1751.652344	10969.716797
1750.640625	10871.355469
1749.629883	10839.772461
1748.618164	10882.347656
1747.606445	10865.599609
1746.594727	10826.621094
1745.583008	10896.347656
1744.570312	10699.306641
1743.557617	10998.684570
1742.545898	10915.266602
1741.533203	11044.170898
1740.519531	10822.560547
1739.506836	10916.887695
1738.493164	10727.452148
1737.479492	10846.429688
1736.465820	10960.431641
1735.452148	11126.177734
1734.438477	10914.647461
1733.423828	10986.669922
1732.410156	11100.565430
1731.395508	10960.611328
1730.380859	10887.226562
1729.366211	10949.348633
1728.350586	10991.745117
1727.334961	10928.242188
1726.320312	10781.053711
1725.304688	10766.840820
1724.288086	10942.138672
1723.272461	10854.081055
1722.256836	10935.810547
1721.240234	10911.739258
1720.223633	11049.995117
1719.207031	10944.766602
1718.190430	10964.958008
1717.172852	10918.774414
1716.155273	10872.606445
1715.138672	10914.913086
1714.121094	10878.588867
1713.102539	10915.965820
1712.084961	10803.520508
1711.066406	10909.650391
1710.048828	11104.123047
1709.030273	10954.883789
1708.011719	10879.320312
1706.992188	11083.509766
1705.973633	11017.763672
1704.954102	11030.531250
1703.934570	11043.294922
1702.915039	10840.277344
1701.895508	10958.485352
1700.875977	10890.366211
1699.855469	11033.030273
1698.834961	10893.862305
1697.814453	11134.467773
1696.793945	10990.432617
1695.773438	10795.019531
1694.751953	11042.858398
1693.730469	11026.214844
1692.709961	11007.129883
1691.687500	11115.305664
1690.666016	10824.616211
1689.644531	11082.014648
1688.622070	11067.822266
1687.599609	10948.479492
1686.577148	11186.156250
1685.554688	11037.498047
1684.532227	11059.985352
1683.508789	11119.120117
1682.485352	11016.974609
1681.461914	10968.608398
1680.438477	11152.291992
1679.415039	11111.244141
1678.391602	11309.487305
1677.367188	11163.455078
1676.342773	11107.780273
1675.318359	11093.611328
1674.293945	10823.259766
1673.268555	10948.192383
1672.244141	11053.568359
1671.218750	10951.628906
1670.193359	11056.965820
1669.167969	11035.503906
1668.141602	10797.132812
1667.116211	11024.282227
1666.089844	10929.744141
1665.063477	11246.919922
1664.037109	10947.789062
1663.010742	11155.268555
1661.983398	11107.031250
1660.957031	10959.006836
1659.929688	11051.982422
1658.902344	11011.088867
1657.875000	11138.083008
1656.846680	11145.837891
1655.819336	11044.144531
1654.791016	11034.890625
1653.762695	11076.695312
1652.734375	10848.666016
1651.705078	11172.411133
1650.676758	11219.028320
1649.647461	11049.401367
1648.618164	11098.452148
1647.588867	11115.912109
1646.559570	11138.221680
1645.529297	10993.005859
1644.500000	10978.917969
1643.469727	11081.327148
1642.439453	11183.699219
1641.409180	11133.193359
1640.377930	10983.253906
1639.347656	11102.564453
1638.316406	11132.115234
1637.285156	11067.106445
1636.253906	10999.696289
1635.222656	11215.855469
1634.190430	11066.058594
1633.158203	11044.712891
1632.125977	11205.038086
1631.093750	11009.307617
1630.061523	10973.454102
1629.029297	11061.078125
1627.996094	11005.863281
1626.962891	11086.189453
1625.929688	10900.330078
1624.896484	10944.358398
1623.863281	11213.313477
1622.829102	11165.373047
1621.794922	10957.869141
1620.760742	11115.474609
1619.726562	11103.831055
1618.692383	10782.866211
1617.657227	10947.666016
1616.622070	10899.821289
1615.587891	10844.747070
1614.551758	11103.626953
1613.516602	10939.884766
1612.481445	10882.417969
1611.445312	11104.947266
1610.409180	11139.170898
1609.373047	10948.997070
1608.336914	10997.708984
1607.300781	11012.636719
1606.263672	10919.042969
1605.226562	11037.652344
1604.189453	11182.736328
1603.152344	11180.747070
1602.115234	10848.625000
1601.077148	11176.770508
1600.039062	11020.614258
1599.000977	11047.554688
1597.962891	11011.877930
1596.924805	11137.520508
1595.885742	10781.686523
1594.847656	10876.037109
1593.808594	11054.575195
1592.769531	11115.161133
1591.730469	11072.291016
1590.690430	10988.549805
1589.651367	11135.678711
1588.611328	10866.833984
1587.571289	11114.888672
1586.531250	11072.054688
1585.490234	10966.759766
1584.450195	11128.173828
1583.409180	10907.608398
1582.368164	11047.361328
1581.327148	10951.748047
1580.285156	11093.842773
1579.244141	11024.658203
1578.202148	11106.691406
1577.160156	11032.729492
1576.118164	11229.884766
1575.076172	10992.821289
1574.033203	11019.641602
1572.991211	11127.975586
1571.948242	11078.045898
1570.905273	10951.433594
1569.862305	10891.967773
1568.818359	11052.958008
1567.775391	11101.296875
1566.731445	11113.690430
1565.687500	11051.840820
1564.643555	11188.743164
1563.598633	11107.750000
1562.554688	11168.000977
1561.509766	11149.258789
1560.464844	11116.166992
1559.419922	11185.952148
1558.374023	11191.133789
1557.329102	11050.440430
1556.283203	11182.362305
1555.237305	11230.568359
1554.191406	11343.290039
1553.145508	11173.992188
1552.098633	10933.077148
1551.052734	11193.895508
1550.005859	11153.684570
1548.958984	10953.496094
1547.912109	10901.405273
1546.864258	11145.331055
1545.816406	11081.290039
1544.769531	11212.942383
1543.721680	11163.225586
1542.672852	10929.851562
1541.625000	10968.445312
1540.576172	11207.327148
1539.528320	11038.439453
1538.479492	11234.315430
1537.430664	11158.429688
1536.380859	11120.696289
1535.332031	11149.682617
1534.282227	11242.971680
1533.232422	11219.531250
1532.182617	11112.758789
1531.132812	11222.667969
1530.082031	11165.917969
1529.031250	11149.645508
1527.981445	11161.931641
1526.929688	11376.428711
1525.878906	11207.895508
1524.828125	11115.524414
1523.776367	11206.271484
1522.724609	11239.929688
1521.672852	11152.354492
1520.621094	11140.856445
1519.569336	11217.275391
1518.516602	11141.627930
1517.463867	11080.257812
1516.411133	11049.781250
1515.358398	11173.647461
1514.305664	11221.502930
1513.251953	11231.365234
1512.198242	11139.181641
1511.144531	11198.879883
1510.090820	11291.767578
1509.037109	11107.121094
1507.982422	11181.019531
1506.927734	11186.134766
1505.873047	11001.604492
1504.818359	11127.623047
1503.763672	11016.628906
1502.708984	11017.028320
1501.653320	11152.451172
1500.597656	11053.352539
1499.541992	11075.055664
1498.486328	11378.490234
1497.429688	11153.945312
1496.373047	11161.416992
1495.317383	11204.380859
1494.260742	11095.913086
1493.203125	11195.641602
1492.146484	11205.464844
1491.088867	11068.677734
1490.031250	11095.068359
1488.973633	11085.992188
1487.916016	11136.001953
1486.858398	11242.703125
1485.799805	11013.892578
1484.741211	10912.715820
1483.682617	11132.755859
1482.624023	11163.821289
1481.565430	11282.223633
1480.505859	10940.310547
1479.446289	11171.987305
1478.386719	10983.584961
1477.327148	11151.474609
1476.267578	11040.978516
1475.207031	11300.768555
1474.147461	11126.623047
1473.086914	11082.197266
1472.026367	11068.427734
1470.964844	10962.756836
1469.904297	11010.272461
1468.842773	11060.126953
1467.781250	11171.200195
1466.719727	11211.587891
1465.658203	11075.375000
1464.595703	11174.615234
1463.533203	11003.152344
1462.471680	10892.934570
1461.409180	10900.393555
1460.345703	11143.085938
1459.283203	11096.402344
1458.219727	11136.741211
1457.156250	11108.882812
1456.092773	11160.958008
1455.029297	11046.145508
1453.965820	11135.808594
1452.901367	11011.644531
1451.836914	10918.060547
1450.772461	11052.319336
1449.708008	10996.331055
1448.642578	10999.054688
1447.578125	11013.513672
1446.512695	11056.129883
1445.447266	11004.872070
1444.381836	11016.974609
1443.315430	11061.911133
1442.250000	11069.307617
1441.183594	11076.702148
1440.117188	11027.828125
1439.050781	10824.271484
1437.983398	11037.933594
1436.916992	11078.128906
1435.849609	11214.358398
1434.782227	11027.309570
1433.714844	10999.570312
1432.647461	11121.691406
1431.579102	11056.489258
1430.510742	11010.034180
1429.442383	11064.221680
1428.374023	11230.696289
1427.305664	11004.107422
1426.236328	11100.365234
1425.167969	11030.557617
1424.098633	11126.775391
1423.028320	11148.154297
1421.958984	11192.896484
1420.889648	11120.783203
1419.819336	11200.559570
1418.749023	11135.477539
1417.678711	11030.714844
1416.608398	11112.797852
1415.537109	11239.209961
1414.465820	11146.155273
1413.395508	11181.495117
1412.323242	11156.152344
1411.251953	11030.498047
1410.180664	10895.558594
1409.108398	11089.503906
1408.036133	11101.501953
1406.963867	11099.507812
1405.891602	11092.851562
1404.818359	11065.222656
1403.746094	11095.855469
1402.672852	11131.135742
1401.599609	11066.246094
1400.525391	11094.531250
1399.452148	11104.179688
1398.377930	10911.288086
1397.303711	11000.102539
1396.229492	11005.106445
1395.155273	11031.047852
1394.081055	10936.012695
1393.005859	10966.608398
1391.930664	11062.306641
1390.855469	11139.369141
1389.780273	11128.067383
1388.704102	10895.967773
1387.628906	10998.580078
1386.552734	10833.963867
1385.476562	11008.561523
1384.400391	11111.095703
1383.323242	10988.345703
1382.247070	11069.951172
1381.169922	10912.432617
1380.092773	10954.565430
1379.014648	11050.053711
1377.937500	11217.428711
1376.859375	11020.561523
1375.782227	10993.067383
1374.704102	11148.766602
1373.625000	11169.943359
1372.546875	10961.634766
1371.467773	10943.438477
1370.388672	10990.127930
1369.309570	11180.436523
1368.230469	11108.934570
1367.151367	10947.139648
1366.071289	10970.638672
1364.991211	11086.730469
1363.911133	11147.228516
1362.831055	11258.617188
1361.750977	10833.166016
1360.669922	11222.174805
1359.588867	10928.720703
1358.507812	11213.507812
1357.426758	11123.626953
1356.345703	10941.309570
1355.263672	11214.381836
1354.181641	11198.496094
1353.099609	10919.223633
1352.017578	11173.670898
1350.935547	11227.087891
1349.852539	11005.690430
1348.769531	10909.045898
1347.686523	11052.507812
1346.603516	11064.363281
1345.520508	11228.512695
1344.436523	11101.903320
1343.352539	11046.847656
1342.268555	11210.909180
1341.184570	11188.134766
1340.100586	11234.532227
1339.015625	11149.525391
1337.930664	11073.766602
1336.845703	11007.250977
1335.760742	11136.583008
1334.675781	11141.484375
1333.589844	11210.867188
1332.503906	11227.265625
1331.417969	11084.809570
1330.332031	11181.784180
1329.246094	11177.465820
1328.159180	11325.006836
1327.072266	11247.047852
1325.985352	10996.611328
1324.898438	11178.599609
1323.811523	11194.976562
1322.723633	11117.094727
1321.635742	11057.627930
1320.547852	11347.477539
1319.459961	11244.335938
1318.371094	11336.489258
1317.283203	11008.305664
1316.194336	11256.618164
1315.105469	11353.310547
1314.016602	11222.711914
1312.926758	11131.177734
1311.837891	11007.549805
1310.748047	11152.394531
1309.658203	11171.025391
1308.568359	11152.954102
1307.477539	11146.353516
1306.387695	11022.832031
1305.296875	11055.223633
1304.206055	11066.977539
1303.114258	11042.064453
1302.023438	11072.142578
1300.931641	11070.142578
1299.840820	10758.976562
1298.748047	10915.021484
1297.656250	10954.256836
1296.564453	10991.188477
1295.471680	11028.105469
1294.378906	11071.873047
1293.286133	10987.517578
1292.193359	10898.617188
1291.099609	10866.917969
1290.006836	10871.812500
1288.913086	11199.029297
1287.819336	11091.868164
1286.725586	11206.405273
1285.630859	11019.314453
1284.536133	11065.292969
1283.442383	10987.922852
1282.346680	10979.084961
1281.251953	11125.500000
1280.157227	10924.895508
1279.061523	10945.742188
1277.965820	11142.283203
1276.870117	10916.686523
1275.774414	10919.273438
1274.677734	10871.685547
1273.581055	11047.574219
1272.485352	10906.507812
1271.387695	10945.563477
1270.291016	10923.072266
1269.194336	10991.730469
1268.096680	10976.072266
1266.999023	10951.308594
1265.901367	10988.040039
1264.803711	11008.820312
1263.705078	10772.348633
1262.606445	10963.865234
1261.507812	10852.648438
1260.409180	10994.024414
1259.310547	10887.390625
1258.210938	10601.116211
1257.111328	11044.903320
1256.011719	10829.184570
1254.912109	10952.249023
1253.812500	11045.721680
1252.711914	10773.309570
1251.612305	10880.412109
1250.511719	10898.884766
1249.410156	10867.385742
1248.309570	10885.852539
1247.208008	10983.774414
1246.107422	10890.988281
1245.005859	10786.887695
1243.903320	10750.896484
1242.801758	10837.426758
1241.699219	10964.752930
1240.597656	10951.426758
1239.495117	10931.301758
1238.391602	11115.216797
1237.289062	10916.005859
1236.185547	10773.522461
1235.082031	10748.911133
1233.978516	10964.439453
1232.875000	10649.885742
1231.771484	10931.024414
1230.666992	10926.777344
1229.562500	10827.455078
1228.458008	10845.861328
1227.353516	10852.946289
1226.248047	10832.877930
1225.143555	10643.158203
1224.038086	10899.059570
1222.931641	10865.424805
1221.826172	10840.844727
1220.720703	10782.366211
1219.614258	10884.372070
1218.507812	10902.734375
1217.401367	10898.496094
1216.294922	10842.306641
1215.187500	10804.205078
1214.080078	10863.209961
1212.972656	10895.101562
1211.865234	10926.981445
1210.757812	10888.889648
1209.649414	10956.860352
1208.541016	10812.746094
1207.432617	10923.559570
1206.324219	10899.025391
1205.215820	10946.649414
1204.106445	10807.149414
1202.997070	10886.327148
1201.887695	11003.784180
1200.778320	10904.903320
1199.668945	11078.630859
1198.558594	11011.302734
1197.448242	10862.932617
1196.337891	10872.215820
1195.227539	10895.001953
1194.117188	10854.762695
1193.005859	10555.761719
1191.894531	10875.565430
1190.783203	10846.596680
1189.671875	10995.307617
1188.559570	10768.451172
1187.447266	11029.530273
1186.334961	10919.632812
1185.222656	11133.393555
1184.110352	10825.785156
1182.998047	10940.637695
1181.884766	10752.219727
1180.771484	11004.031250
1179.658203	10833.631836
1178.543945	10753.089844
1177.430664	10930.694336
1176.316406	10838.943359
1175.202148	10801.073242
1174.087891	10924.731445
1172.972656	10920.501953
1171.858398	10889.363281
1170.743164	10714.745117
1169.627930	10883.160156
1168.512695	10829.631836
1167.396484	10764.917969
1166.281250	10877.220703
1165.165039	10926.761719
1164.048828	10882.220703
1162.931641	10788.433594
1161.815430	10965.573242
1160.698242	10900.902344
1159.581055	10829.541016
1158.463867	10825.332031
1157.346680	10836.784180
1156.228516	10716.263672
1155.111328	10888.747070
1153.993164	10880.057617
1152.875000	10696.998047
1151.755859	10891.741211
1150.637695	10681.929688
1149.518555	10677.750000
1148.399414	10783.032227
1147.280273	10848.073242
1146.160156	10736.675781
1145.041016	10761.511719
1143.920898	10804.197266
1142.800781	10851.330078
1141.680664	10773.483398
1140.559570	10954.466797
1139.439453	10751.712891
1138.318359	10765.365234
1137.197266	10808.000000
1136.075195	10971.007812
1134.954102	10951.175781
1133.832031	10768.662109
1132.709961	10670.886719
1131.587891	10864.987305
1130.465820	10718.226562
1129.342773	10794.216797
1128.220703	10792.249023
1127.097656	10852.614258
1125.974609	10815.022461
1124.850586	10706.233398
1123.727539	10777.704102
1122.603516	10762.391602
1121.479492	10700.376953
1120.355469	10680.634766
1119.230469	10538.616211
1118.106445	10790.108398
1116.981445	10588.112305
1115.856445	10619.512695
1114.730469	10881.958984
1113.605469	10828.883789
1112.479492	10753.618164
1111.353516	10751.655273
1110.227539	10836.277344
1109.101562	10696.678711
1107.974609	10599.296875
1106.848633	10690.555664
1105.721680	10717.444336
1104.594727	10733.232422
1103.466797	10953.039062
1102.339844	10591.843750
1101.211914	10742.872070
1100.083984	10539.213867
1098.956055	10705.708984
1097.827148	10863.280273
1096.699219	10717.305664
1095.570312	10611.251953
1094.441406	10737.750000
1093.311523	10684.866211
1092.182617	10581.087891
1091.052734	10685.389648
1089.922852	10628.117188
1088.792969	10716.883789
1087.663086	10779.074219
1086.532227	10688.640625
1085.402344	10779.557617
1084.271484	10755.479492
1083.139648	10897.188477
1082.008789	10866.467773
1080.876953	10623.637695
1079.746094	10668.088867
1078.614258	10697.061523
1077.481445	10871.774414
1076.349609	10697.566406
1075.216797	10825.856445
1074.083984	10786.355469
1072.951172	10793.209961
1071.818359	11033.934570
1070.685547	10824.557617
1069.551758	10897.566406
1068.417969	10710.341797
1067.284180	10900.194336
1066.149414	10662.337891
1065.015625	10673.611328
1063.880859	10704.710938
1062.746094	10804.095703
1061.611328	10674.362305
1060.476562	10654.790039
1059.340820	10751.926758
1058.205078	10752.160156
1057.069336	10730.382812
1055.933594	10717.416016
1054.796875	10755.059570
1053.661133	10867.485352
1052.524414	10709.332031
1051.387695	10821.724609
1050.250000	10738.391602
1049.113281	10740.822266
1047.975586	10527.859375
1046.837891	10870.935547
1045.700195	10638.251953
1044.561523	10748.333984
1043.423828	10873.750000
1042.285156	10757.573242
1041.146484	10786.338867
1040.007812	10790.948242
1038.868164	10769.219727
1037.728516	10839.657227
1036.589844	10793.794922
1035.449219	10675.563477
1034.309570	10745.978516
1033.169922	10783.477539
1032.029297	10696.003906
1030.888672	10628.288086
1029.748047	10827.953125
1028.606445	10758.045898
1027.465820	10657.495117
1026.324219	10870.185547
1025.182617	10520.007812
1024.041016	10675.719727
1022.898438	10671.573242
1021.756836	10682.748047
1020.614258	10871.166016
1019.471680	10678.831055
1018.328125	10668.123047
1017.185547	10808.324219
1016.041992	10793.221680
1014.898438	10673.185547
1013.754883	10605.653320
1012.610352	10671.456055
1011.466797	10697.903320
1010.322266	10685.017578
1009.177734	10678.689453
1008.033203	10842.700195
1006.887695	10794.859375
1005.742188	10736.119141
1004.597656	10592.278320
1003.451172	10636.161133
1002.305664	10743.300781
1001.160156	10649.708984
1000.013672	10796.063477
998.867188	10658.882812
997.720703	10639.484375
996.573242	10596.115234
995.426758	10681.346680
994.279297	10757.830078
993.131836	10598.994141
991.983398	10555.661133
990.835938	10727.948242
989.687500	10665.010742
988.539062	10719.654297
987.390625	10667.623047
986.242188	10548.147461
985.092773	10848.648438
983.944336	10744.411133
982.794922	10788.112305
981.644531	10842.670898
980.495117	10812.413086
979.344727	10608.260742
978.194336	10843.214844
977.043945	10691.283203
975.893555	10606.758789
974.742188	10606.981445
973.591797	10772.261719
972.440430	10674.739258
971.289062	10766.130859
970.136719	10735.933594
968.985352	10673.193359
967.833008	10972.836914
966.680664	10656.251953
965.528320	10845.166992
964.375000	10647.996094
963.221680	10622.186523
962.069336	10821.841797
960.915039	10583.600586
959.761719	10542.647461
958.608398	10718.372070
957.454102	10748.894531
956.299805	10788.067383
955.145508	10721.119141
953.990234	11000.602539
952.834961	10682.540039
951.680664	10609.153320
950.525391	10713.229492
949.369141	10633.374023
948.213867	10601.133789
947.057617	10741.917969
945.901367	10633.990234
944.745117	10623.384766
943.588867	10684.111328
942.431641	10766.425781
941.274414	10706.105469
940.117188	10647.966797
938.959961	10738.880859
937.801758	10512.317383
936.644531	10521.176758
935.486328	10650.918945
934.328125	10543.201172
933.168945	10659.942383
932.010742	10806.845703
930.851562	10673.272461
929.692383	10531.121094
928.533203	10740.497070
927.373047	10684.621094
926.213867	10702.050781
925.053711	10460.862305
923.893555	10633.465820
922.732422	10879.251953
921.572266	10552.005859
920.411133	10741.723633
919.250000	10604.096680
918.088867	10746.374023
916.926758	10651.842773
915.765625	10703.677734
914.603516	10654.370117
913.441406	10710.486328
912.279297	10611.727539
911.116211	10609.770508
909.953125	10644.363281
908.790039	10483.333984
907.626953	10752.192383
906.463867	10503.102539
905.299805	10576.357422
904.135742	10552.926758
902.971680	10520.914062
901.807617	10624.183594
900.643555	10613.636719
899.478516	10575.189453
898.313477	10721.310547
897.148438	10530.520508
895.982422	10642.271484
894.817383	10543.791992
893.651367	10616.899414
892.485352	10724.283203
891.319336	10503.656250
890.152344	10355.978516
888.986328	10544.777344
887.819336	10527.833008
886.652344	10536.598633
885.484375	10566.777344
884.317383	10564.826172
883.149414	10543.607422
881.981445	10665.805664
880.813477	10614.614258
879.644531	10422.224609
878.475586	10441.692383
877.307617	10394.846680
876.137695	10675.203125
874.968750	10500.047852
873.798828	10389.085938
872.629883	10500.442383
871.459961	10549.786133
870.289062	10477.333008
869.119141	10503.165039
867.948242	10535.395508
866.777344	10576.153320
865.606445	10587.007812
864.435547	10612.799805
863.263672	10506.265625
862.092773	10489.386719
860.920898	10472.513672
859.748047	10590.021484
858.576172	10607.255859
857.403320	10682.051758
856.230469	10564.960938
855.057617	10599.240234
853.884766	10552.529297
852.710938	10663.497070
851.538086	10648.744141
850.364258	10665.941406
849.189453	10723.590820
848.015625	10668.381836
846.840820	10738.780273
845.666016	10598.459961
844.491211	10668.843750
843.316406	10632.830078
842.140625	10643.625000
840.965820	10628.894531
839.790039	10714.102539
838.613281	10593.072266
837.437500	10663.375977
836.260742	10553.024414
835.083984	10642.430664
833.907227	10631.962891
832.730469	10542.915039
831.552734	10536.715820
830.375977	10628.179688
829.198242	10621.965820
828.019531	10552.084961
826.841797	10800.515625
825.663086	10522.717773
824.484375	10595.007812
823.305664	10641.821289
822.126953	10580.479492
820.947266	10879.551758
819.767578	10782.155273
818.587891	10606.386719
817.408203	10479.413086
816.228516	10727.439453
815.047852	10746.630859
813.867188	10664.169922
812.686523	10795.576172
811.504883	10738.538086
810.324219	10582.049805
809.142578	10795.920898
807.960938	10724.103516
806.779297	10844.798828
805.596680	10407.129883
804.415039	10494.006836
803.232422	10720.378906
802.048828	10661.321289
800.866211	10591.718750
799.682617	10746.107422
798.500000	10515.964844
797.315430	10792.810547
796.131836	10826.707031
794.948242	10562.895508
793.763672	10689.701172
792.579102	10558.975586
791.394531	10554.905273
790.208984	10645.775391
789.024414	10639.581055
787.838867	10656.585938
786.653320	10652.500000
785.466797	10855.015625
784.281250	10697.023438
783.094727	10673.963867
781.908203	10562.416992
780.721680	10431.952148
779.534180	10507.945312
778.347656	10533.370117
777.160156	10784.066406
775.972656	10582.083984
774.784180	10430.687500
773.596680	10780.162109
772.408203	10510.967773
771.219727	10723.570312
770.031250	10544.917969
768.841797	10662.812500
767.653320	10578.840820
766.463867	10707.194336
765.274414	10543.386719
764.083984	10577.146484
762.894531	10659.209961
761.704102	10548.009766
760.513672	10693.046875
759.322266	10514.694336
758.131836	10510.640625
756.940430	10380.660156
755.749023	10540.307617
754.557617	10443.936523
753.365234	10731.466797
752.173828	10519.747070
750.981445	10624.730469
749.789062	10702.418945
748.595703	10572.568359
747.403320	10451.148438
746.209961	10631.494141
745.016602	10514.296875
743.823242	10732.263672
742.628906	10548.078125
741.435547	10611.021484
740.241211	10567.179688
739.046875	10546.376953
737.851562	10628.116211
736.657227	10448.303711
735.461914	10571.866211
734.266602	10680.741211
733.070312	10511.472656
731.875000	10643.315430
730.678711	10557.724609
729.482422	10459.626953
728.286133	10618.566406
727.089844	10683.438477
725.892578	10664.739258
724.695312	10717.048828
723.498047	10456.154297
722.300781	10502.218750
721.102539	10537.831055
719.904297	10475.352539
718.706055	10477.574219
717.507812	10544.458008
716.308594	10686.396484
715.110352	10694.831055
713.911133	10542.734375
712.711914	10561.613281
711.511719	10524.216797
710.311523	10451.412109
709.112305	10511.960938
707.912109	10626.640625
706.710938	10630.907227
705.510742	10689.304688
704.309570	10576.983398
703.108398	10522.978516
701.907227	10650.032227
700.705078	10593.953125
699.502930	10681.422852
698.301758	10550.487305
697.098633	10600.502930
695.896484	10654.657227
694.693359	10351.277344
693.491211	10540.539062
692.287109	10586.361328
691.083984	10688.256836
689.880859	10659.261719
688.676758	10621.969727
687.472656	10526.556641
686.268555	10723.874023
685.063477	10709.419922
683.858398	10655.543945
682.654297	10784.260742
681.448242	10566.519531
680.243164	10427.668945
679.037109	10575.016602
677.832031	10568.895508
676.625977	10641.541016
675.418945	10550.442383
674.212891	10620.991211
673.005859	10529.929688
671.798828	10544.532227
670.591797	10310.630859
669.383789	10579.931641
668.176758	10373.020508
666.968750	10470.426758
665.760742	10478.817383
664.551758	10497.547852
663.343750	10406.641602
662.134766	10576.350586
660.925781	10305.569336
659.715820	10543.455078
658.506836	10440.203125
657.296875	10589.111328
656.086914	10475.558594
654.876953	10725.627930
653.666016	10329.128906
652.456055	10746.398438
651.245117	10420.240234
650.034180	10397.649414
648.822266	10453.493164
647.611328	10453.602539
646.399414	10468.152344
645.187500	10697.217773
643.974609	10524.043945
642.762695	10528.260742
641.549805	10443.830078
640.336914	10351.184570
639.124023	10540.900391
637.910156	10584.256836
636.696289	10549.316406
635.483398	10331.082031
634.268555	10395.043945
633.054688	10393.098633
631.839844	10485.843750
630.625000	10516.809570
629.410156	10339.937500
628.195312	10383.262695
626.979492	10445.083008
625.764648	10467.806641
624.548828	10323.971680
623.332031	10568.731445
622.116211	10336.548828
620.899414	10601.763672
619.682617	10573.068359
618.465820	10462.212891
617.248047	10445.876953
616.031250	10532.218750
614.813477	10491.237305
613.595703	10483.114258
612.376953	10477.045898
611.159180	10372.486328
609.940430	10503.892578
608.721680	10411.673828
607.502930	10506.108398
606.283203	10372.915039
605.063477	10532.920898
603.843750	10278.843750
602.624023	10502.333008
601.403320	10393.824219
600.183594	10406.214844
598.962891	10459.561523
597.742188	10574.319336
596.520508	10406.503906
595.299805	10259.220703
594.078125	10378.042969
592.856445	10288.111328
591.633789	10437.569336
590.412109	10333.341797
589.189453	10216.882812
587.966797	10302.885742
586.743164	10466.536133
585.520508	10325.589844
584.296875	10360.435547
583.073242	10307.414062
581.849609	10381.060547
580.625000	10350.519531
579.401367	10401.666992
578.176758	10226.182617
576.952148	10320.198242
575.726562	10508.054688
574.500977	10287.757812
573.276367	10604.071289
572.049805	10326.728516
570.824219	10441.027344
569.598633	10216.829102
568.372070	10524.761719
567.145508	10219.106445
565.917969	10455.601562
564.691406	10406.778320
563.463867	10274.458008
562.236328	10280.674805
561.008789	10445.711914
559.780273	10307.349609
558.552734	10327.802734
557.324219	10270.915039
556.094727	10240.500000
554.866211	10208.061523
553.636719	10376.991211
552.407227	10458.415039
551.177734	10336.494141
549.948242	10208.520508
548.717773	10375.288086
547.488281	10365.209961
546.256836	10312.470703
545.026367	10397.875000
543.795898	10345.148438
542.564453	10221.375000
541.333008	10270.205078
540.100586	10154.610352
538.869141	10274.459961
537.636719	10236.005859
536.404297	10142.795898
535.171875	10203.760742
533.939453	10080.173828
532.706055	10122.879883
531.472656	10076.380859
530.239258	10177.843750
529.004883	10204.296875
527.771484	10182.117188
526.537109	10198.430664
525.302734	9908.943359
524.067383	10075.131836
522.833008	10048.943359
521.597656	10107.770508
520.362305	10043.136719
519.126953	9950.200195
517.890625	9998.897461
516.654297	10138.586914
515.417969	10112.413086
514.181641	10003.358398
512.944336	9969.133789
511.708008	10112.763672
510.470703	9975.481445
509.233398	9973.602539
507.995117	10028.277344
506.756836	10198.038086
505.518555	10169.869141
504.280273	10113.449219
503.041992	10036.868164
501.802734	10081.387695
500.563477	10095.627930
499.324219	9998.919922
498.084961	10049.470703
496.844727	9948.774414
495.604492	10188.818359
494.364258	10088.131836
493.124023	9961.286133
491.882812	9937.244141
490.642578	10044.152344
489.401367	10036.215820
488.159180	10084.666016
486.917969	9988.137695
485.675781	10084.888672
484.433594	10060.847656
483.191406	10008.645508
481.948242	10141.548828
480.705078	10004.869141
479.462891	9974.827148
478.218750	10081.521484
476.975586	10043.433594
475.731445	9922.953125
474.487305	9959.261719
473.243164	10013.638672
471.999023	10074.020508
470.753906	10246.849609
469.508789	10030.057617
468.263672	10022.140625
467.018555	9962.038086
465.772461	10004.308594
464.526367	9922.159180
463.280273	10046.671875
462.034180	9918.413086
460.787109	10008.786133
459.540039	9924.691406
458.292969	9654.199219
457.045898	9870.836914
455.797852	9748.741211
454.550781	10029.388672
453.302734	9865.243164
452.053711	10105.708008
450.805664	10025.707031
449.556641	9873.666016
448.307617	9967.875977
447.058594	9771.875000
445.808594	9802.041992
444.559570	9814.192383
443.309570	9898.339844
442.059570	9756.490234
440.808594	9960.575195
439.557617	9682.838867
438.307617	9860.877930
437.055664	9968.913086
435.804688	9823.186523
434.552734	9789.370117
433.300781	9845.432617
432.048828	9827.596680
430.796875	9697.975586
429.543945	9769.990234
428.291016	9863.926758
427.038086	9700.453125
425.785156	9858.200195
424.531250	9764.592773
423.278320	9730.839844
422.023438	9768.872070
420.769531	9699.251953
419.515625	9749.231445
418.260742	9821.109375
417.005859	9930.809570
415.750000	9897.061523
414.495117	9891.205078
413.239258	9927.161133
411.983398	9975.047852
410.727539	9798.016602
409.470703	9941.421875
408.214844	9931.581055
406.958008	9734.766602
405.700195	9816.450195
404.443359	9878.217773
403.185547	9725.259766
401.927734	9600.184570
400.669922	9634.136719
399.411133	9823.049805
398.153320	9481.499023
396.894531	9626.674805
395.635742	9779.738281
394.375977	9698.469727
393.116211	9517.983398
391.857422	9619.378906
390.596680	9534.217773
389.336914	9685.166992
388.076172	9546.471680
386.815430	9550.610352
385.554688	9556.730469
384.293945	9770.994141
383.032227	9509.502930
381.770508	9610.743164
380.508789	9462.309570
379.247070	9642.752930
377.984375	9551.802734
376.721680	9439.105469
375.458984	9478.888672
374.196289	9530.532227
372.932617	9518.829102
371.668945	9604.081055
370.405273	9382.676758
369.141602	9560.879883
367.876953	9377.138672
366.613281	9527.594727
365.347656	9468.461914
364.083008	9429.114258
362.818359	9482.650391
361.552734	9382.071289
360.287109	9378.314453
359.020508	9352.835938
357.754883	9471.501953
356.488281	9449.962891
355.221680	9371.193359
353.955078	9227.333008
352.687500	9365.661133
351.419922	9330.347656
350.152344	9330.547852
348.884766	9289.337891
347.616211	9236.315430
346.348633	9417.872070
345.080078	9309.664062
343.810547	9252.724609
342.541992	9256.876953
341.272461	9249.208984
340.002930	9328.188477
338.733398	9155.125977
337.462891	9188.818359
336.193359	9283.507812
334.922852	9315.194336
333.651367	9217.023438
332.380859	9150.360352
331.109375	9146.654297
329.837891	9323.840820
328.566406	9227.707031
327.293945	9298.674805
326.022461	9123.977539
324.750000	9108.488281
323.477539	9216.759766
322.204102	9091.275391
320.930664	9177.908203
319.657227	9278.250000
318.383789	9270.595703
317.110352	9103.983398
315.835938	9033.576172
314.561523	9224.107422
313.287109	9151.743164
312.011719	9255.894531
310.737305	9171.786133
309.461914	9130.835938
308.185547	8995.826172
306.910156	9307.632812
305.633789	9174.599609
304.357422	9096.460938
303.081055	9353.235352
301.804688	9435.648438
300.527344	9531.733398
299.250000	9494.686523
297.972656	9487.007812
296.694336	9596.721680
295.416992	9671.183594
294.138672	9698.676758
292.860352	9884.547852
291.581055	9687.161133
290.301758	9536.761719
289.022461	9448.956055
287.743164	9281.072266
286.463867	8996.041016
285.183594	9091.984375
283.903320	9023.856445
282.623047	8885.465820
281.342773	8844.731445
280.061523	8874.271484
278.780273	8806.235352
277.499023	8861.132812
276.216797	8892.602539
274.935547	8709.539062
273.653320	8715.677734
272.370117	8788.093750
271.087891	8803.958984
269.804688	8745.767578
268.521484	8691.494141
267.238281	8832.036133
265.955078	8705.706055
264.670898	8635.891602
263.386719	8704.330078
262.102539	8710.455078
260.817383	8615.379883
259.533203	8847.222656
258.248047	8711.304688
256.962891	8791.331055
255.676758	8674.919922
254.390625	8642.156250
253.104492	8700.765625
251.818359	8603.873047
250.532227	8670.239258
249.245117	8777.377930
247.958008	8538.730469
246.670898	8904.140625
245.382812	8624.785156
244.095703	8634.785156
242.807617	8532.208008
241.518555	8617.902344
240.230469	8639.537109
238.941406	8494.341797
237.652344	8545.083008
236.363281	8690.818359
235.074219	8409.987305
233.784180	8551.814453
232.494141	8472.663086
231.204102	8505.918945
229.913086	8585.655273
228.622070	8820.306641
227.331055	9252.386719
226.040039	9138.324219
224.749023	8882.998047
223.457031	8722.601562
222.165039	8610.639648
220.873047	8309.128906
219.580078	8187.617188
218.287109	8317.553711
216.994141	8302.427734
215.701172	8182.918945
214.407227	8386.225586
213.114258	8369.162109
211.820312	8214.931641
210.525391	8211.427734
209.231445	8169.299316
207.936523	8275.866211
206.641602	8127.561523
205.346680	8106.704102
204.050781	8054.977539
202.754883	8105.530273
201.458984	8113.623535
200.163086	8081.210938
198.866211	8048.810547
197.569336	8114.747559
196.272461	7941.638672
194.975586	8005.643066
193.677734	7930.889648
192.379883	7906.252441
191.082031	8033.787109
189.784180	7947.515625
188.485352	7997.978027
187.187500	8009.920410
185.887695	7971.817871
184.588867	7854.834473
183.289062	7909.122070
181.989258	7805.659668
180.689453	7833.010742
179.389648	7866.119629
178.088867	7791.560059
176.788086	7922.687500
175.487305	7840.458008
174.186523	7908.122070
172.884766	7977.680664
171.583008	7868.598633
170.281250	7924.695801
168.979492	7863.661133
167.676758	7764.259766
166.374023	7659.139160
165.071289	7730.581543
163.767578	7633.180664
162.463867	7867.629883
161.160156	7687.780762
159.856445	7720.816406
158.552734	7709.750488
157.248047	7746.601562
155.943359	7499.846191
154.638672	7603.775391
153.333008	7546.768555
152.027344	7591.281250
150.721680	7511.321777
149.416016	7506.051270
148.110352	7447.191406
146.803711	7560.576660
145.497070	7595.476074
144.189453	7509.852051
142.882812	7533.271973
141.575195	7560.506836
140.267578	7379.350586
138.959961	7433.363281
137.651367	7569.528320
136.342773	7386.562500
135.034180	7369.860840
133.725586	7364.625000
132.416016	7279.189941
131.106445	7319.792969
129.796875	7091.237793
128.487305	6923.840332
127.176758	6914.876953
125.866211	6974.594727
124.555664	6654.727539
123.244141	6479.913086
121.933594	6438.628418
120.622070	6235.328125

