#Wave		#Intensity
1998.943359	29666.263672
1997.975586	29410.519531
1997.007812	29751.492188
1996.039062	29503.564453
1995.071289	29699.812500
1994.102539	29449.394531
1993.133789	29650.744141
1992.165039	29467.515625
1991.196289	29645.566406
1990.227539	29694.570312
1989.257812	29661.023438
1988.288086	29472.757812
1987.318359	29800.222656
1986.348633	29728.001953
1985.378906	29635.185547
1984.409180	29766.597656
1983.438477	29627.425781
1982.467773	29864.410156
1981.497070	29704.664062
1980.526367	29794.763672
1979.555664	29866.808594
1978.584961	29931.103516
1977.613281	29799.765625
1976.641602	29614.429688
1975.669922	29776.503906
1974.698242	29866.490234
1973.726562	30059.324219
1972.753906	29658.056641
1971.782227	29873.998047
1970.809570	29884.208984
1969.836914	29873.853516
1968.863281	29647.636719
1967.890625	29745.236328
1966.917969	29883.902344
1965.944336	29842.726562
1964.970703	29927.398438
1963.997070	29840.011719
1963.023438	29875.875000
1962.048828	29827.027344
1961.075195	30294.000000
1960.100586	29801.216797
1959.125977	29821.666016
1958.151367	30175.539062
1957.176758	29685.595703
1956.201172	30041.929688
1955.226562	29931.580078
1954.250977	30082.699219
1953.275391	30031.316406
1952.299805	29703.238281
1951.323242	30087.431641
1950.347656	29941.304688
1949.371094	30010.337891
1948.394531	30268.814453
1947.417969	30092.009766
1946.441406	29774.494141
1945.464844	30219.683594
1944.487305	30188.816406
1943.509766	30191.214844
1942.532227	30280.574219
1941.554688	30564.250000
1940.577148	30114.025391
1939.599609	29853.125000
1938.621094	30264.521484
1937.642578	30231.119141
1936.664062	30200.285156
1935.685547	30082.603516
1934.707031	30069.681641
1933.727539	30253.396484
1932.749023	30010.656250
1931.769531	30173.892578
1930.790039	30158.408203
1929.810547	30193.962891
1928.830078	30487.201172
1927.850586	29887.488281
1926.870117	30032.742188
1925.889648	30012.189453
1924.909180	30006.939453
1923.928711	30085.814453
1922.948242	30179.953125
1921.966797	30579.855469
1920.985352	30245.830078
1920.003906	30108.072266
1919.022461	29909.232422
1918.041016	30217.222656
1917.059570	30186.474609
1916.077148	30458.667969
1915.094727	30394.796875
1914.112305	30280.052734
1913.129883	30211.146484
1912.147461	30216.033203
1911.164062	30236.177734
1910.180664	30075.763672
1909.197266	30563.750000
1908.213867	30327.070312
1907.230469	30466.632812
1906.247070	30156.355469
1905.262695	30255.246094
1904.278320	29934.951172
1903.294922	30364.025391
1902.309570	29868.599609
1901.325195	30160.429688
1900.340820	30442.000000
1899.355469	30396.058594
1898.370117	30116.669922
1897.384766	29964.236328
1896.399414	30321.744141
1895.414062	30154.107422
1894.427734	30199.542969
1893.442383	30303.273438
1892.456055	30561.601562
1891.469727	30566.384766
1890.482422	30429.255859
1889.496094	30261.771484
1888.508789	30147.541016
1887.522461	30104.265625
1886.535156	30131.910156
1885.547852	30764.658203
1884.559570	30194.759766
1883.572266	30323.607422
1882.583984	30060.177734
1881.595703	30545.744141
1880.607422	30128.058594
1879.619141	30365.578125
1878.630859	30152.896484
1877.641602	30587.537109
1876.653320	29972.955078
1875.664062	29987.919922
1874.674805	30111.537109
1873.684570	30245.214844
1872.695312	30644.085938
1871.705078	30444.236328
1870.715820	30358.089844
1869.725586	30463.853516
1868.735352	30089.958984
1867.744141	30324.447266
1866.753906	30316.605469
1865.762695	30212.888672
1864.771484	30474.978516
1863.780273	30431.798828
1862.789062	30345.765625
1861.797852	30065.626953
1860.805664	30468.716797
1859.813477	30541.500000
1858.821289	30568.898438
1857.829102	30336.783203
1856.836914	30487.636719
1855.844727	30487.322266
1854.851562	30368.654297
1853.858398	30678.033203
1852.865234	30345.406250
1851.872070	30405.513672
1850.878906	30548.640625
1849.884766	30631.333984
1848.890625	30258.695312
1847.897461	30268.472656
1846.903320	30637.830078
1845.908203	30597.251953
1844.914062	30687.398438
1843.918945	30732.273438
1842.923828	30709.285156
1841.929688	30548.123047
1840.933594	30655.794922
1839.938477	30386.701172
1838.943359	30642.513672
1837.947266	30709.937500
1836.951172	30461.052734
1835.955078	30719.222656
1834.958984	30610.943359
1833.961914	30826.343750
1832.965820	30866.078125
1831.968750	30755.318359
1830.971680	30428.947266
1829.974609	30995.216797
1828.977539	30588.703125
1827.979492	30899.109375
1826.982422	30961.333984
1825.984375	30783.021484
1824.986328	30554.673828
1823.988281	30972.554688
1822.989258	30967.109375
1821.991211	31014.238281
1820.992188	31063.853516
1819.993164	30677.980469
1818.994141	30690.101562
1817.995117	30649.677734
1816.995117	30934.447266
1815.996094	31064.054688
1814.996094	30711.023438
1813.996094	30945.625000
1812.996094	30587.736328
1811.996094	31217.144531
1810.995117	30876.822266
1809.994141	30796.439453
1808.993164	30820.996094
1807.992188	31025.353516
1806.991211	30820.136719
1805.990234	30684.892578
1804.988281	30871.691406
1803.986328	30758.945312
1802.984375	31055.451172
1801.982422	30980.130859
1800.980469	31106.876953
1799.977539	30747.267578
1798.975586	30647.103516
1797.972656	30915.939453
1796.969727	31010.199219
1795.966797	31141.806641
1794.962891	30670.375000
1793.959961	31048.628906
1792.956055	30871.294922
1791.952148	30589.423828
1790.948242	31221.462891
1789.943359	30862.453125
1788.939453	30901.820312
1787.934570	30781.900391
1786.929688	31070.083984
1785.924805	30688.958984
1784.919922	30934.771484
1783.915039	30760.214844
1782.909180	30859.224609
1781.903320	31124.761719
1780.897461	30865.748047
1779.891602	30959.714844
1778.885742	30750.513672
1777.879883	31055.625000
1776.873047	31216.568359
1775.866211	30982.595703
1774.859375	30676.697266
1773.852539	30971.673828
1772.844727	31015.853516
1771.837891	30923.529297
1770.830078	30890.783203
1769.822266	30897.742188
1768.814453	30860.048828
1767.806641	31013.320312
1766.797852	31005.371094
1765.789062	30866.037109
1764.781250	30845.722656
1763.772461	30656.900391
1762.762695	31161.896484
1761.753906	30901.244141
1760.744141	30722.416016
1759.735352	30828.433594
1758.725586	30758.619141
1757.714844	30966.085938
1756.705078	30772.517578
1755.695312	31150.656250
1754.684570	30877.945312
1753.673828	30649.859375
1752.663086	30800.269531
1751.652344	30985.246094
1750.640625	30888.296875
1749.629883	30929.812500
1748.618164	30511.601562
1747.606445	30864.529297
1746.594727	31081.445312
1745.583008	30715.298828
1744.570312	30907.462891
1743.557617	30711.861328
1742.545898	30876.796875
1741.533203	30765.199219
1740.519531	30922.660156
1739.506836	30808.623047
1738.493164	30788.378906
1737.479492	30570.798828
1736.465820	30802.167969
1735.452148	31021.125000
1734.438477	30729.650391
1733.423828	30726.687500
1732.410156	30787.802734
1731.395508	31046.029297
1730.380859	30779.388672
1729.366211	30670.492188
1728.350586	30702.015625
1727.334961	30703.978516
1726.320312	30991.529297
1725.304688	30794.050781
1724.288086	30877.208984
1723.272461	30591.234375
1722.256836	31036.052734
1721.240234	31200.294922
1720.223633	30892.275391
1719.207031	30776.162109
1718.190430	30505.201172
1717.172852	30898.017578
1716.155273	31096.537109
1715.138672	30513.595703
1714.121094	30962.703125
1713.102539	31062.851562
1712.084961	31077.003906
1711.066406	31294.957031
1710.048828	31124.933594
1709.030273	30704.601562
1708.011719	31089.382812
1706.992188	30782.074219
1705.973633	30904.201172
1704.954102	30785.902344
1703.934570	31182.654297
1702.915039	30804.433594
1701.895508	30710.726562
1700.875977	31107.277344
1699.855469	30800.337891
1698.834961	31155.076172
1697.814453	30853.132812
1696.793945	31168.542969
1695.773438	30783.437500
1694.751953	31429.296875
1693.730469	30980.628906
1692.709961	30779.332031
1691.687500	31138.519531
1690.666016	30986.199219
1689.644531	31183.761719
1688.622070	30811.349609
1687.599609	31079.791016
1686.577148	31206.320312
1685.554688	30924.550781
1684.532227	30840.859375
1683.508789	31243.505859
1682.485352	31123.136719
1681.461914	31222.667969
1680.438477	30941.138672
1679.415039	31016.244141
1678.391602	30495.572266
1677.367188	30846.580078
1676.342773	31258.480469
1675.318359	30921.062500
1674.293945	31113.212891
1673.268555	30963.771484
1672.244141	31143.650391
1671.218750	30718.695312
1670.193359	31203.318359
1669.167969	31192.912109
1668.141602	30955.841797
1667.116211	30733.476562
1666.089844	30957.050781
1665.063477	30895.535156
1664.037109	30997.222656
1663.010742	30723.863281
1661.983398	30942.408203
1660.957031	31126.792969
1659.929688	30975.244141
1658.902344	31067.085938
1657.875000	30981.289062
1656.846680	30793.355469
1655.819336	31009.214844
1654.791016	30634.101562
1653.762695	31061.427734
1652.734375	30934.376953
1651.705078	30744.181641
1650.676758	30539.472656
1649.647461	30650.671875
1648.618164	30929.435547
1647.588867	30860.802734
1646.559570	30605.220703
1645.529297	30582.794922
1644.500000	30795.828125
1643.469727	30637.466797
1642.439453	30610.191406
1641.409180	30883.755859
1640.377930	30710.904297
1639.347656	30661.800781
1638.316406	30733.949219
1637.285156	30616.972656
1636.253906	30657.591797
1635.222656	30797.558594
1634.190430	30498.900391
1633.158203	30459.568359
1632.125977	30614.023438
1631.093750	30514.138672
1630.061523	30571.673828
1629.029297	30801.070312
1627.996094	30507.564453
1626.962891	30744.150391
1625.929688	30441.076172
1624.896484	30290.519531
1623.863281	30514.917969
1622.829102	30282.175781
1621.794922	30421.869141
1620.760742	30549.423828
1619.726562	30647.927734
1618.692383	30695.646484
1617.657227	30194.876953
1616.622070	30455.242188
1615.587891	30539.195312
1614.551758	30497.544922
1613.516602	30685.279297
1612.481445	30448.078125
1611.445312	30447.492188
1610.409180	30246.613281
1609.373047	30600.734375
1608.336914	30356.474609
1607.300781	30698.388672
1606.263672	30401.144531
1605.226562	30521.111328
1604.189453	30481.935547
1603.152344	30358.416016
1602.115234	30728.935547
1601.077148	30523.498047
1600.039062	30479.525391
1599.000977	30794.427734
1597.962891	30507.210938
1596.924805	30549.935547
1595.885742	30380.814453
1594.847656	30495.744141
1593.808594	30514.382812
1592.769531	30333.322266
1591.730469	30503.523438
1590.690430	30517.333984
1589.651367	30134.382812
1588.611328	30619.468750
1587.571289	30642.863281
1586.531250	30329.785156
1585.490234	30432.517578
1584.450195	30275.744141
1583.409180	30484.134766
1582.368164	30495.519531
1581.327148	30475.681641
1580.285156	30597.496094
1579.244141	30553.642578
1578.202148	30579.400391
1577.160156	30533.164062
1576.118164	30472.546875
1575.076172	30505.498047
1574.033203	30387.349609
1572.991211	30516.210938
1571.948242	30489.199219
1570.905273	30692.298828
1569.862305	30487.923828
1568.818359	30504.056641
1567.775391	30431.544922
1566.731445	30859.652344
1565.687500	30547.623047
1564.643555	30376.970703
1563.598633	30531.949219
1562.554688	30299.125000
1561.509766	30363.125000
1560.464844	30276.363281
1559.419922	30651.326172
1558.374023	30387.550781
1557.329102	30492.136719
1556.283203	30412.582031
1555.237305	30311.539062
1554.191406	30554.703125
1553.145508	30764.322266
1552.098633	30486.464844
1551.052734	30330.535156
1550.005859	30363.339844
1548.958984	30634.925781
1547.912109	30469.498047
1546.864258	30719.482422
1545.816406	30549.322266
1544.769531	30696.593750
1543.721680	30638.628906
1542.672852	30597.382812
1541.625000	30486.984375
1540.576172	30538.773438
1539.528320	30581.007812
1538.479492	30513.574219
1537.430664	30510.511719
1536.380859	30483.621094
1535.332031	30423.384766
1534.282227	30627.570312
1533.232422	30486.355469
1532.182617	30433.291016
1531.132812	30694.496094
1530.082031	30505.736328
1529.031250	30547.886719
1527.981445	30635.230469
1526.929688	30732.058594
1525.878906	30296.046875
1524.828125	30787.671875
1523.776367	30358.937500
1522.724609	30358.269531
1521.672852	30728.396484
1520.621094	30197.708984
1519.569336	30707.916016
1518.516602	30312.830078
1517.463867	30433.298828
1516.411133	30677.212891
1515.358398	30441.421875
1514.305664	30281.677734
1513.251953	30390.195312
1512.198242	30458.330078
1511.144531	30305.783203
1510.090820	30575.544922
1509.037109	30254.630859
1507.982422	30346.451172
1506.927734	30298.349609
1505.873047	30155.443359
1504.818359	30095.541016
1503.763672	30225.232422
1502.708984	30537.308594
1501.653320	30491.578125
1500.597656	30175.865234
1499.541992	30125.478516
1498.486328	30449.181641
1497.429688	30356.152344
1496.373047	30189.787109
1495.317383	30480.173828
1494.260742	30200.283203
1493.203125	30263.478516
1492.146484	30078.324219
1491.088867	30098.953125
1490.031250	30065.199219
1488.973633	30367.107422
1487.916016	30333.314453
1486.858398	30545.275391
1485.799805	30166.537109
1484.741211	30139.880859
1483.682617	30264.376953
1482.624023	30164.511719
1481.565430	30100.093750
1480.505859	30274.093750
1479.446289	30320.593750
1478.386719	30246.740234
1477.327148	30014.851562
1476.267578	29837.294922
1475.207031	29848.460938
1474.147461	30149.634766
1473.086914	30068.800781
1472.026367	29933.781250
1470.964844	29977.908203
1469.904297	30111.552734
1468.842773	30346.445312
1467.781250	29950.029297
1466.719727	30100.085938
1465.658203	30106.466797
1464.595703	30072.826172
1463.533203	30307.507812
1462.471680	29694.953125
1461.409180	30268.416016
1460.345703	29980.710938
1459.283203	29902.427734
1458.219727	30113.408203
1457.156250	29858.796875
1456.092773	29818.185547
1455.029297	30094.871094
1453.965820	30098.876953
1452.901367	30194.505859
1451.836914	29886.076172
1450.772461	29986.402344
1449.708008	29943.457031
1448.642578	30048.431641
1447.578125	29810.662109
1446.512695	30143.267578
1445.447266	29727.232422
1444.381836	30172.339844
1443.315430	29784.593750
1442.250000	29713.587891
1441.183594	29863.013672
1440.117188	29981.908203
1439.050781	29871.052734
1437.983398	29931.312500
1436.916992	29790.044922
1435.849609	29805.783203
1434.782227	29959.708984
1433.714844	29879.394531
1432.647461	30075.394531
1431.579102	29735.236328
1430.510742	29580.105469
1429.442383	29804.130859
1428.374023	30098.267578
1427.305664	29802.791016
1426.236328	29865.269531
1425.167969	29876.277344
1424.098633	29983.140625
1423.028320	30045.548828
1421.958984	29862.527344
1420.889648	29787.062500
1419.819336	29954.605469
1418.749023	29542.771484
1417.678711	29857.433594
1416.608398	29702.625000
1415.537109	29942.433594
1414.465820	29731.638672
1413.395508	29558.261719
1412.323242	29758.294922
1411.251953	29743.617188
1410.180664	29780.259766
1409.108398	29637.312500
1408.036133	30002.736328
1406.963867	29932.068359
1405.891602	29793.828125
1404.818359	29536.779297
1403.746094	29846.033203
1402.672852	29731.175781
1401.599609	29714.185547
1400.525391	29969.673828
1399.452148	29915.390625
1398.377930	29733.085938
1397.303711	29751.017578
1396.229492	29557.167969
1395.155273	29700.765625
1394.081055	29637.267578
1393.005859	29404.001953
1391.930664	29666.144531
1390.855469	29623.609375
1389.780273	29813.550781
1388.704102	29829.107422
1387.628906	29537.914062
1386.552734	29602.302734
1385.476562	29634.146484
1384.400391	29772.814453
1383.323242	29762.812500
1382.247070	29697.093750
1381.169922	29285.523438
1380.092773	29516.984375
1379.014648	29261.062500
1377.937500	29796.369141
1376.859375	29693.582031
1375.782227	29314.845703
1374.704102	29534.492188
1373.625000	29387.755859
1372.546875	29505.318359
1371.467773	29493.054688
1370.388672	29281.521484
1369.309570	29524.136719
1368.230469	29525.769531
1367.151367	29538.980469
1366.071289	29422.521484
1364.991211	29435.742188
1363.911133	29421.183594
1362.831055	29378.857422
1361.750977	29521.650391
1360.669922	29611.181641
1359.588867	29143.255859
1358.507812	29070.943359
1357.426758	29111.949219
1356.345703	29035.041016
1355.263672	29327.966797
1354.181641	29590.744141
1353.099609	29421.369141
1352.017578	29208.164062
1350.935547	29269.880859
1349.852539	29768.013672
1348.769531	29386.314453
1347.686523	29401.794922
1346.603516	29361.875000
1345.520508	29418.886719
1344.436523	29164.414062
1343.352539	29401.361328
1342.268555	29308.421875
1341.184570	29637.490234
1340.100586	29505.345703
1339.015625	29064.371094
1337.930664	29047.607422
1336.845703	29217.490234
1335.760742	29364.271484
1334.675781	29084.871094
1333.589844	29404.345703
1332.503906	29610.876953
1331.417969	29370.716797
1330.332031	29303.271484
1329.246094	29399.244141
1328.159180	29278.894531
1327.072266	29367.931641
1325.985352	29383.332031
1324.898438	29318.240234
1323.811523	29209.484375
1322.723633	29670.873047
1321.635742	29352.935547
1320.547852	29453.343750
1319.459961	29105.689453
1318.371094	28925.851562
1317.283203	29584.388672
1316.194336	29078.449219
1315.105469	29187.994141
1314.016602	29373.251953
1312.926758	29182.044922
1311.837891	29101.052734
1310.748047	29217.392578
1309.658203	29306.164062
1308.568359	29018.779297
1307.477539	28850.734375
1306.387695	29262.777344
1305.296875	29097.037109
1304.206055	29006.986328
1303.114258	29219.423828
1302.023438	28969.015625
1300.931641	29144.732422
1299.840820	29226.492188
1298.748047	29264.714844
1297.656250	29117.490234
1296.564453	29409.783203
1295.471680	29081.794922
1294.378906	29117.722656
1293.286133	28922.585938
1292.193359	28873.900391
1291.099609	29140.812500
1290.006836	28973.208984
1288.913086	28983.974609
1287.819336	28761.603516
1286.725586	28724.412109
1285.630859	28737.496094
1284.536133	28917.330078
1283.442383	28932.656250
1282.346680	28961.675781
1281.251953	28728.128906
1280.157227	28791.414062
1279.061523	28758.818359
1277.965820	28851.736328
1276.870117	28903.552734
1275.774414	28950.787109
1274.677734	28760.820312
1273.581055	28406.744141
1272.485352	28850.722656
1271.387695	28804.474609
1270.291016	28951.951172
1269.194336	28775.820312
1268.096680	28738.718750
1266.999023	28726.683594
1265.901367	28739.703125
1264.803711	28891.607422
1263.705078	28440.185547
1262.606445	28555.667969
1261.507812	28482.228516
1260.409180	28326.904297
1259.310547	28678.925781
1258.210938	28719.220703
1257.111328	28729.939453
1256.011719	28486.007812
1254.912109	28453.570312
1253.812500	28200.683594
1252.711914	28545.519531
1251.612305	28594.876953
1250.511719	28535.179688
1249.410156	28400.554688
1248.309570	28763.267578
1247.208008	28565.078125
1246.107422	28387.390625
1245.005859	28361.820312
1243.903320	28193.308594
1242.801758	28417.333984
1241.699219	28289.697266
1240.597656	28109.945312
1239.495117	28304.384766
1238.391602	28630.240234
1237.289062	28595.583984
1236.185547	28329.787109
1235.082031	28064.083984
1233.978516	28265.146484
1232.875000	28427.628906
1231.771484	28388.505859
1230.666992	28197.697266
1229.562500	28357.835938
1228.458008	28314.216797
1227.353516	28467.486328
1226.248047	28557.347656
1225.143555	28638.126953
1224.038086	28628.408203
1222.931641	28444.574219
1221.826172	28801.152344
1220.720703	28389.044922
1219.614258	28261.851562
1218.507812	28356.146484
1217.401367	28308.076172
1216.294922	28327.785156
1215.187500	28591.394531
1214.080078	28401.048828
1212.972656	28292.044922
1211.865234	28194.365234
1210.757812	28293.058594
1209.649414	28414.279297
1208.541016	28156.453125
1207.432617	28615.982422
1206.324219	28423.611328
1205.215820	28249.345703
1204.106445	28309.589844
1202.997070	28315.718750
1201.887695	28150.578125
1200.778320	28433.859375
1199.668945	28466.990234
1198.558594	28437.044922
1197.448242	28285.509766
1196.337891	28460.486328
1195.227539	28360.771484
1194.117188	28672.957031
1193.005859	28582.238281
1191.894531	28304.818359
1190.783203	28272.681641
1189.671875	28512.683594
1188.559570	28422.056641
1187.447266	28210.058594
1186.334961	28378.007812
1185.222656	28354.871094
1184.110352	28653.054688
1182.998047	28205.277344
1181.884766	28294.486328
1180.771484	28298.326172
1179.658203	28466.068359
1178.543945	28368.851562
1177.430664	28231.267578
1176.316406	28585.187500
1175.202148	28286.066406
1174.087891	28307.841797
1172.972656	28329.607422
1171.858398	28463.486328
1170.743164	28395.531250
1169.627930	28121.367188
1168.512695	28210.382812
1167.396484	28321.773438
1166.281250	28377.111328
1165.165039	28374.187500
1164.048828	28301.835938
1162.931641	28213.835938
1161.815430	28226.611328
1160.698242	28319.962891
1159.581055	28234.240234
1158.463867	28287.277344
1157.346680	28051.701172
1156.228516	28344.082031
1155.111328	28162.250000
1153.993164	28192.898438
1152.875000	27747.365234
1151.755859	28173.691406
1150.637695	28032.242188
1149.518555	28085.230469
1148.399414	28299.037109
1147.280273	28193.375000
1146.160156	28337.857422
1145.041016	28104.960938
1143.920898	27894.472656
1142.800781	28047.853516
1141.680664	27904.392578
1140.559570	28033.171875
1139.439453	28077.138672
1138.318359	27835.615234
1137.197266	27723.511719
1136.075195	28260.208984
1134.954102	27693.345703
1133.832031	27859.902344
1132.709961	27759.009766
1131.587891	27892.074219
1130.465820	27837.986328
1129.342773	27984.347656
1128.220703	27565.099609
1127.097656	27909.583984
1125.974609	27982.396484
1124.850586	27712.476562
1123.727539	27892.093750
1122.603516	27833.617188
1121.479492	27873.023438
1120.355469	27778.990234
1119.230469	27765.029297
1118.106445	27502.105469
1116.981445	27892.697266
1115.856445	27607.621094
1114.730469	27933.621094
1113.605469	27630.867188
1112.479492	27901.218750
1111.353516	27611.902344
1110.227539	27675.687500
1109.101562	27819.355469
1107.974609	27687.779297
1106.848633	27771.480469
1105.721680	27877.333984
1104.594727	27725.853516
1103.466797	27516.765625
1102.339844	27684.689453
1101.211914	27992.210938
1100.083984	27499.480469
1098.956055	27846.810547
1097.827148	27923.703125
1096.699219	27615.117188
1095.570312	27576.851562
1094.441406	27352.585938
1093.311523	27706.261719
1092.182617	27513.042969
1091.052734	27778.029297
1089.922852	27706.570312
1088.792969	27497.966797
1087.663086	27477.458984
1086.532227	27717.925781
1085.402344	27726.126953
1084.271484	27360.701172
1083.139648	27563.478516
1082.008789	27629.160156
1080.876953	27590.966797
1079.746094	27968.109375
1078.614258	27675.857422
1077.481445	27759.132812
1076.349609	27807.048828
1075.216797	27623.152344
1074.083984	27706.388672
1072.951172	27626.292969
1071.818359	27844.082031
1070.685547	27280.886719
1069.551758	27536.150391
1068.417969	27469.371094
1067.284180	27680.410156
1066.149414	27560.720703
1065.015625	27366.142578
1063.880859	27510.974609
1062.746094	27585.253906
1061.611328	27705.761719
1060.476562	27636.826172
1059.340820	27385.154297
1058.205078	27611.300781
1057.069336	27573.232422
1055.933594	27242.482422
1054.796875	27483.929688
1053.661133	27712.087891
1052.524414	27203.330078
1051.387695	27611.779297
1050.250000	27606.724609
1049.113281	27489.558594
1047.975586	27326.277344
1046.837891	27587.169922
1045.700195	27533.781250
1044.561523	27423.298828
1043.423828	27317.248047
1042.285156	27353.966797
1041.146484	27522.398438
1040.007812	27589.794922
1038.868164	27536.458984
1037.728516	27303.210938
1036.589844	27374.994141
1035.449219	27490.619141
1034.309570	27224.607422
1033.169922	27555.095703
1032.029297	27385.626953
1030.888672	27525.271484
1029.748047	27312.039062
1028.606445	27344.281250
1027.465820	27312.980469
1026.324219	27307.974609
1025.182617	27383.992188
1024.041016	27103.103516
1022.898438	27389.275391
1021.756836	27325.162109
1020.614258	27521.468750
1019.471680	27207.937500
1018.328125	27415.128906
1017.185547	27344.490234
1016.041992	27319.794922
1014.898438	27264.501953
1013.754883	27242.013672
1012.610352	27274.169922
1011.466797	27059.402344
1010.322266	27211.732422
1009.177734	27143.396484
1008.033203	27219.218750
1006.887695	27135.621094
1005.742188	27298.734375
1004.597656	27212.966797
1003.451172	27369.457031
1002.305664	27218.251953
1001.160156	27003.839844
1000.013672	27441.630859
998.867188	27089.875000
997.720703	27294.203125
996.573242	27249.955078
995.426758	27587.121094
994.279297	26995.898438
993.131836	27402.701172
991.983398	27192.916016
990.835938	27512.417969
989.687500	27405.027344
988.539062	27036.429688
987.390625	27279.599609
986.242188	27109.195312
985.092773	27550.259766
983.944336	26927.376953
982.794922	27244.333984
981.644531	27217.582031
980.495117	26851.660156
979.344727	27014.109375
978.194336	27096.082031
977.043945	27108.488281
975.893555	27062.224609
974.742188	27307.056641
973.591797	27178.244141
972.440430	27105.933594
971.289062	27378.841797
970.136719	27330.396484
968.985352	27088.816406
967.833008	27190.156250
966.680664	26942.181641
965.528320	27225.707031
964.375000	27264.074219
963.221680	27289.414062
962.069336	27000.408203
960.915039	26876.234375
959.761719	27252.689453
958.608398	27050.511719
957.454102	27036.869141
956.299805	27378.429688
955.145508	27115.705078
953.990234	26902.871094
952.834961	27216.123047
951.680664	27089.917969
950.525391	27130.373047
949.369141	26945.812500
948.213867	27308.572266
947.057617	27409.515625
945.901367	27173.109375
944.745117	27079.470703
943.588867	26841.046875
942.431641	27008.990234
941.274414	27137.978516
940.117188	27156.744141
938.959961	27019.992188
937.801758	27077.640625
936.644531	27012.199219
935.486328	27093.570312
934.328125	27116.638672
933.168945	27338.220703
932.010742	27095.861328
930.851562	26788.876953
929.692383	27133.326172
928.533203	26994.636719
927.373047	26983.195312
926.213867	27070.908203
925.053711	27167.208984
923.893555	27104.025391
922.732422	27394.169922
921.572266	26814.027344
920.411133	26916.759766
919.250000	27045.291016
918.088867	27096.277344
916.926758	26942.771484
915.765625	27008.816406
914.603516	27055.472656
913.441406	27063.390625
912.279297	26854.080078
911.116211	26935.142578
909.953125	26949.523438
908.790039	26858.572266
907.626953	26580.675781
906.463867	26726.185547
905.299805	27037.062500
904.135742	26662.625000
902.971680	26670.591797
901.807617	27065.044922
900.643555	26909.775391
899.478516	26902.664062
898.313477	26702.416016
897.148438	26879.861328
895.982422	26759.060547
894.817383	26687.632812
893.651367	26987.210938
892.485352	26797.845703
891.319336	26799.328125
890.152344	26625.066406
888.986328	26768.005859
887.819336	26525.253906
886.652344	26546.060547
885.484375	26793.871094
884.317383	26741.814453
883.149414	26730.453125
881.981445	26579.966797
880.813477	26564.357422
879.644531	26728.482422
878.475586	26749.214844
877.307617	26628.775391
876.137695	26809.900391
874.968750	26638.177734
873.798828	26590.501953
872.629883	26844.199219
871.459961	26587.085938
870.289062	26874.871094
869.119141	26643.478516
867.948242	26984.537109
866.777344	26475.617188
865.606445	26814.443359
864.435547	26692.087891
863.263672	26689.287109
862.092773	26539.257812
860.920898	26903.416016
859.748047	26862.181641
858.576172	26812.431641
857.403320	26607.050781
856.230469	26913.365234
855.057617	26663.281250
853.884766	27061.101562
852.710938	26730.117188
851.538086	26548.369141
850.364258	26920.427734
849.189453	26936.740234
848.015625	26782.726562
846.840820	27054.488281
845.666016	26753.662109
844.491211	26612.531250
843.316406	26841.621094
842.140625	26830.271484
840.965820	26599.882812
839.790039	26845.853516
838.613281	26902.533203
837.437500	26806.158203
836.260742	26947.824219
835.083984	26908.839844
833.907227	27037.687500
832.730469	26775.691406
831.552734	26832.312500
830.375977	26727.558594
829.198242	26928.509766
828.019531	26813.162109
826.841797	27096.773438
825.663086	26966.585938
824.484375	26844.927734
823.305664	26723.314453
822.126953	26877.386719
820.947266	26766.410156
819.767578	26875.906250
818.587891	27023.503906
817.408203	26789.669922
816.228516	26678.785156
815.047852	26756.441406
813.867188	27052.179688
812.686523	27025.992188
811.504883	26889.740234
810.324219	26800.097656
809.142578	26716.835938
807.960938	26802.853516
806.779297	26854.996094
805.596680	26795.029297
804.415039	26921.156250
803.232422	26789.318359
802.048828	27027.421875
800.866211	26648.359375
799.682617	27091.345703
798.500000	26957.458984
797.315430	27186.900391
796.131836	26719.392578
794.948242	26659.539062
793.763672	26772.804688
792.579102	26816.378906
791.394531	26832.501953
790.208984	26662.962891
789.024414	26818.324219
787.838867	26847.089844
786.653320	26821.019531
785.466797	26786.527344
784.281250	26766.798828
783.094727	26879.843750
781.908203	26689.435547
780.721680	26570.722656
779.534180	26740.605469
778.347656	26739.849609
777.160156	26907.529297
775.972656	26847.800781
774.784180	26565.000000
773.596680	26688.423828
772.408203	26870.710938
771.219727	26733.199219
770.031250	26961.675781
768.841797	27007.130859
767.653320	26453.410156
766.463867	26843.654297
765.274414	26809.244141
764.083984	26583.642578
762.894531	26725.753906
761.704102	26672.476562
760.513672	26537.320312
759.322266	26962.800781
758.131836	26462.380859
756.940430	26692.525391
755.749023	26790.384766
754.557617	26833.658203
753.365234	26727.980469
752.173828	26687.357422
750.981445	26678.201172
749.789062	26459.400391
748.595703	26781.464844
747.403320	26841.449219
746.209961	26761.025391
745.016602	26712.052734
743.823242	26704.988281
742.628906	26739.808594
741.435547	26847.894531
740.241211	26748.697266
739.046875	26917.433594
737.851562	26619.466797
736.657227	26258.841797
735.461914	26544.712891
734.266602	26556.501953
733.070312	26737.658203
731.875000	26582.156250
730.678711	26704.710938
729.482422	26793.781250
728.286133	26398.064453
727.089844	26833.939453
725.892578	26730.775391
724.695312	26554.558594
723.498047	26681.148438
722.300781	26717.929688
721.102539	26535.548828
719.904297	26570.251953
718.706055	26421.345703
717.507812	26212.000000
716.308594	26734.761719
715.110352	26573.392578
713.911133	26660.169922
712.711914	26659.371094
711.511719	26779.443359
710.311523	26401.484375
709.112305	26496.558594
707.912109	26385.394531
706.710938	26740.740234
705.510742	26660.800781
704.309570	26526.765625
703.108398	26525.982422
701.907227	26587.625000
700.705078	26736.623047
699.502930	26525.705078
698.301758	26843.117188
697.098633	26517.890625
695.896484	26633.525391
694.693359	26782.371094
693.491211	26848.033203
692.287109	26323.576172
691.083984	26426.689453
689.880859	26631.537109
688.676758	26720.015625
687.472656	26748.250000
686.268555	26433.955078
685.063477	26786.001953
683.858398	26571.419922
682.654297	26597.580078
681.448242	26715.000000
680.243164	26747.343750
679.037109	26439.613281
677.832031	26513.457031
676.625977	26647.380859
675.418945	26710.792969
674.212891	26533.832031
673.005859	26414.937500
671.798828	26728.970703
670.591797	26875.148438
669.383789	26774.888672
668.176758	26386.927734
666.968750	26576.546875
665.760742	26532.265625
664.551758	26630.753906
663.343750	26621.640625
662.134766	26767.638672
660.925781	26522.779297
659.715820	26532.294922
658.506836	26634.816406
657.296875	26439.714844
656.086914	26542.212891
654.876953	26605.423828
653.666016	26462.066406
652.456055	26376.583984
651.245117	26299.390625
650.034180	26346.078125
648.822266	26314.322266
647.611328	26414.638672
646.399414	26283.849609
645.187500	26299.560547
643.974609	26236.896484
642.762695	26450.554688
641.549805	26253.882812
640.336914	26273.705078
639.124023	26194.601562
637.910156	26486.398438
636.696289	26396.982422
635.483398	26303.478516
634.268555	26578.613281
633.054688	26437.753906
631.839844	26426.630859
630.625000	26106.796875
629.410156	26013.429688
628.195312	26454.998047
626.979492	26157.960938
625.764648	26031.726562
624.548828	26234.525391
623.332031	26169.996094
622.116211	26072.603516
620.899414	26131.425781
619.682617	26305.283203
618.465820	25768.310547
617.248047	26287.214844
616.031250	26173.457031
614.813477	26113.121094
613.595703	25915.275391
612.376953	26037.664062
611.159180	26133.330078
609.940430	26144.845703
608.721680	26195.328125
607.502930	26094.033203
606.283203	26302.382812
605.063477	26090.402344
603.843750	26216.687500
602.624023	26002.751953
601.403320	26131.052734
600.183594	26033.972656
598.962891	26080.292969
597.742188	26112.261719
596.520508	25982.480469
595.299805	26030.828125
594.078125	26101.667969
592.856445	26217.496094
591.633789	26282.136719
590.412109	25925.398438
589.189453	26349.988281
587.966797	25987.234375
586.743164	25935.341797
585.520508	26326.984375
584.296875	26168.785156
583.073242	26208.822266
581.849609	26026.187500
580.625000	25945.738281
579.401367	26147.105469
578.176758	26272.857422
576.952148	25927.048828
575.726562	26101.771484
574.500977	25954.042969
573.276367	26004.251953
572.049805	26144.183594
570.824219	26390.103516
569.598633	26217.960938
568.372070	26056.072266
567.145508	26140.857422
565.917969	25991.267578
564.691406	26069.917969
563.463867	26089.464844
562.236328	25952.185547
561.008789	26179.437500
559.780273	25966.865234
558.552734	25992.517578
557.324219	26170.789062
556.094727	25665.341797
554.866211	26095.857422
553.636719	26204.851562
552.407227	26073.847656
551.177734	25985.587891
549.948242	25901.425781
548.717773	25853.876953
547.488281	25912.009766
546.256836	25848.220703
545.026367	25961.171875
543.795898	25958.320312
542.564453	25843.794922
541.333008	25832.843750
540.100586	25773.183594
538.869141	25608.019531
537.636719	26021.166016
536.404297	25486.816406
535.171875	25946.474609
533.939453	25710.425781
532.706055	25786.683594
531.472656	25716.966797
530.239258	25740.501953
529.004883	25693.105469
527.771484	25631.544922
526.537109	25535.574219
525.302734	25771.757812
524.067383	25643.398438
522.833008	25486.744141
521.597656	25506.232422
520.362305	25224.197266
519.126953	25715.138672
517.890625	25137.832031
516.654297	25501.185547
515.417969	25199.138672
514.181641	25527.972656
512.944336	25517.101562
511.708008	25581.007812
510.470703	25620.640625
509.233398	25290.566406
507.995117	25384.771484
506.756836	25202.281250
505.518555	25514.521484
504.280273	25816.548828
503.041992	25401.974609
501.802734	25356.830078
500.563477	25220.912109
499.324219	25565.123047
498.084961	25352.578125
496.844727	25236.900391
495.604492	25318.830078
494.364258	25471.273438
493.124023	25438.259766
491.882812	25362.943359
490.642578	25247.365234
489.401367	25145.927734
488.159180	25251.939453
486.917969	25440.457031
485.675781	25339.037109
484.433594	25364.445312
483.191406	25236.917969
481.948242	25354.876953
480.705078	25539.167969
479.462891	25188.449219
478.218750	25441.062500
476.975586	25480.488281
475.731445	25523.917969
474.487305	25426.662109
473.243164	25315.378906
471.999023	25139.853516
470.753906	25223.478516
469.508789	25513.896484
468.263672	25408.697266
467.018555	25142.957031
465.772461	25242.566406
464.526367	25157.541016
463.280273	25198.931641
462.034180	25476.982422
460.787109	25311.742188
459.540039	25527.509766
458.292969	25316.212891
457.045898	25173.138672
455.797852	25204.453125
454.550781	25243.767578
453.302734	25016.654297
452.053711	25290.306641
450.805664	25201.429688
449.556641	25072.544922
448.307617	25211.919922
447.058594	25035.052734
445.808594	25126.359375
444.559570	24927.568359
443.309570	25064.861328
442.059570	25020.128906
440.808594	24993.406250
439.557617	25088.626953
438.307617	24822.072266
437.055664	24877.324219
435.804688	24990.490234
434.552734	24807.992188
433.300781	24951.082031
432.048828	24834.548828
430.796875	24859.796875
429.543945	24525.767578
428.291016	24810.480469
427.038086	24757.902344
425.785156	24547.755859
424.531250	24912.076172
423.278320	24787.720703
422.023438	24695.308594
420.769531	24760.400391
419.515625	24578.345703
418.260742	24529.859375
417.005859	24505.292969
415.750000	24556.423828
414.495117	24802.689453
413.239258	24489.386719
411.983398	24323.509766
410.727539	24531.861328
409.470703	24537.164062
408.214844	24522.570312
406.958008	24571.632812
405.700195	24483.451172
404.443359	24745.253906
403.185547	24446.343750
401.927734	24751.781250
400.669922	24852.416016
399.411133	24549.677734
398.153320	24332.470703
396.894531	24526.472656
395.635742	24486.080078
394.375977	24628.357422
393.116211	24177.068359
391.857422	24436.437500
390.596680	24346.484375
389.336914	24651.349609
388.076172	24493.949219
386.815430	24550.781250
385.554688	24443.023438
384.293945	24587.064453
383.032227	24324.746094
381.770508	24450.917969
380.508789	24313.539062
379.247070	24390.142578
377.984375	24395.417969
376.721680	24052.195312
375.458984	24475.250000
374.196289	24264.755859
372.932617	24533.250000
371.668945	24494.958984
370.405273	24246.990234
369.141602	24281.945312
367.876953	24267.449219
366.613281	24278.660156
365.347656	24242.423828
364.083008	24316.876953
362.818359	24644.222656
361.552734	24386.667969
360.287109	24429.443359
359.020508	24484.048828
357.754883	24710.412109
356.488281	24622.808594
355.221680	24657.607422
353.955078	24970.630859
352.687500	24983.644531
351.419922	25406.951172
350.152344	25222.654297
348.884766	25507.722656
347.616211	25599.478516
346.348633	25896.191406
345.080078	25932.656250
343.810547	26213.427734
342.541992	26200.566406
341.272461	25746.519531
340.002930	25005.138672
338.733398	24913.755859
337.462891	24542.884766
336.193359	24394.548828
334.922852	24004.236328
333.651367	24007.542969
332.380859	23963.638672
331.109375	23823.386719
329.837891	23871.943359
328.566406	23568.593750
327.293945	23809.796875
326.022461	23716.837891
324.750000	23647.490234
323.477539	23597.812500
322.204102	23624.746094
320.930664	23551.525391
319.657227	23886.683594
318.383789	23613.226562
317.110352	23649.945312
315.835938	23353.089844
314.561523	23332.951172
313.287109	23499.150391
312.011719	23614.296875
310.737305	23627.447266
309.461914	23119.166016
308.185547	23712.527344
306.910156	23435.640625
305.633789	23472.320312
304.357422	23446.304688
303.081055	23535.841797
301.804688	23278.775391
300.527344	23601.267578
299.250000	23485.208984
297.972656	23296.787109
296.694336	23331.480469
295.416992	23391.587891
294.138672	23357.794922
292.860352	23902.810547
291.581055	23714.484375
290.301758	23672.826172
289.022461	23445.527344
287.743164	23741.960938
286.463867	23542.082031
285.183594	23717.285156
283.903320	23505.767578
282.623047	23450.523438
281.342773	23442.148438
280.061523	23375.226562
278.780273	23380.525391
277.499023	23233.648438
276.216797	23262.376953
274.935547	23402.255859
273.653320	23386.091797
272.370117	23481.052734
271.087891	23607.162109
269.804688	23475.994141
268.521484	23446.185547
267.238281	23763.125000
265.955078	24105.261719
264.670898	24309.013672
263.386719	24915.683594
262.102539	25516.281250
260.817383	26289.849609
259.533203	27835.576172
258.248047	29791.181641
256.962891	31765.490234
255.676758	33754.597656
254.390625	34871.925781
253.104492	33743.656250
251.818359	31830.638672
250.532227	29751.242188
249.245117	28094.214844
247.958008	26550.480469
246.670898	25502.546875
245.382812	24724.900391
244.095703	24151.384766
242.807617	23807.113281
241.518555	23653.142578
240.230469	23103.439453
238.941406	23106.783203
237.652344	22813.394531
236.363281	22704.326172
235.074219	22449.896484
233.784180	22242.083984
232.494141	22201.011719
231.204102	22301.396484
229.913086	22122.785156
228.622070	21986.851562
227.331055	21754.146484
226.040039	22071.376953
224.749023	21873.585938
223.457031	21654.578125
222.165039	21905.853516
220.873047	21605.669922
219.580078	21557.048828
218.287109	21605.140625
216.994141	21641.611328
215.701172	21243.113281
214.407227	21496.105469
213.114258	21325.806641
211.820312	21476.287109
210.525391	21288.671875
209.231445	21203.484375
207.936523	21068.123047
206.641602	21023.550781
205.346680	21054.269531
204.050781	20944.099609
202.754883	21057.785156
201.458984	21179.142578
200.163086	20797.064453
198.866211	20962.773438
197.569336	20819.947266
196.272461	20987.515625
194.975586	20929.533203
193.677734	20590.253906
192.379883	20784.736328
191.082031	20513.027344
189.784180	20464.804688
188.485352	20512.869141
187.187500	20508.939453
185.887695	20685.923828
184.588867	20531.867188
183.289062	20654.910156
181.989258	20597.093750
180.689453	20650.839844
179.389648	20485.367188
178.088867	20177.699219
176.788086	20560.162109
175.487305	20385.191406
174.186523	20206.443359
172.884766	20315.904297
171.583008	20206.376953
170.281250	20231.304688
168.979492	20526.919922
167.676758	19981.691406
166.374023	20106.439453
165.071289	20328.994141
163.767578	20298.236328
162.463867	20062.263672
161.160156	19943.357422
159.856445	19987.462891
158.552734	20016.214844
157.248047	19770.890625
155.943359	20200.148438
154.638672	19726.902344
153.333008	19991.275391
152.027344	19882.109375
150.721680	19788.302734
149.416016	19744.302734
148.110352	19707.974609
146.803711	19610.425781
145.497070	19480.386719
144.189453	19643.064453
142.882812	19367.718750
141.575195	19526.529297
140.267578	19494.103516
138.959961	19482.712891
137.651367	19618.474609
136.342773	19589.867188
135.034180	19333.945312
133.725586	19173.619141
132.416016	18980.888672
131.106445	18830.234375
129.796875	18603.285156
128.487305	18197.027344
127.176758	18279.394531
125.866211	17911.507812
124.555664	17703.978516
123.244141	17172.341797
121.933594	16970.751953
120.622070	16618.646484
119.309570	16085.616211
117.998047	15339.373047
116.685547	14627.708984
115.373047	13619.172852
114.060547	12020.655273
112.748047	10542.707031
111.434570	9099.592773
110.121094	7674.163086
108.806641	6304.466797
107.493164	5152.191895
106.178711	3962.315430
104.864258	2968.787598
103.549805	2344.529541
102.234375	1589.334473
100.918945	1178.466187
99.603516	857.074097
