#Wave		#Intensity
1998.943359	1653.292358
1997.975586	1637.792725
1997.007812	1673.666748
1996.039062	1642.386597
1995.071289	1685.992920
1994.102539	1621.162354
1993.133789	1595.069580
1992.165039	1625.758301
1991.196289	1679.657471
1990.227539	1671.625610
1989.257812	1694.547119
1988.288086	1596.258423
1987.318359	1644.968140
1986.348633	1693.660889
1985.378906	1649.549316
1984.409180	1608.030151
1983.438477	1648.974121
1982.467773	1677.023315
1981.497070	1681.882080
1980.526367	1653.261719
1979.555664	1591.179932
1978.584961	1657.833618
1977.613281	1642.101440
1976.641602	1767.910400
1975.669922	1608.080444
1974.698242	1700.409058
1973.726562	1651.243774
1972.753906	1761.533691
1971.782227	1709.803589
1970.809570	1691.510498
1969.836914	1616.678467
1968.863281	1642.094116
1967.890625	1680.347656
1966.917969	1597.849854
1965.944336	1684.897949
1964.970703	1643.515869
1963.997070	1751.065918
1963.023438	1673.747314
1962.048828	1686.288330
1961.075195	1665.464355
1960.100586	1642.081665
1959.125977	1636.664429
1958.151367	1700.500000
1957.176758	1664.301270
1956.201172	1694.778198
1955.226562	1712.426758
1954.250977	1709.564575
1953.275391	1747.705322
1952.299805	1657.723999
1951.323242	1690.736816
1950.347656	1721.176758
1949.371094	1736.241089
1948.394531	1702.652832
1947.417969	1704.915283
1946.441406	1732.771729
1945.464844	1676.170044
1944.487305	1670.760010
1943.509766	1670.468018
1942.532227	1642.041382
1941.554688	1756.830688
1940.577148	1674.705933
1939.599609	1697.420410
1938.621094	1653.673218
1937.642578	1648.273193
1936.664062	1637.765015
1935.685547	1770.316284
1934.707031	1701.045532
1933.727539	1657.335571
1932.749023	1664.705444
1931.769531	1725.681152
1930.790039	1689.646729
1929.810547	1730.181519
1928.830078	1701.812988
1927.850586	1676.005371
1926.870117	1693.566162
1925.889648	1637.167603
1924.909180	1677.675781
1923.928711	1797.195312
1922.948242	1700.027710
1921.966797	1686.988770
1920.985352	1694.337158
1920.003906	1699.135620
1919.022461	1668.274536
1918.041016	1695.994507
1917.059570	1614.222778
1916.077148	1748.859619
1915.094727	1684.923462
1914.112305	1659.181030
1913.129883	1763.207397
1912.147461	1663.687988
1911.164062	1719.352051
1910.180664	1726.679932
1909.197266	1759.430542
1908.213867	1736.243774
1907.230469	1687.648682
1906.247070	1778.836182
1905.262695	1725.168945
1904.278320	1760.431152
1903.294922	1681.387207
1902.309570	1701.408081
1901.325195	1736.655762
1900.340820	1830.276978
1899.355469	1659.905029
1898.370117	1697.678833
1897.384766	1704.993042
1896.399414	1615.908203
1895.414062	1765.266968
1894.427734	1742.135010
1893.442383	1721.546387
1892.456055	1660.405518
1891.469727	1758.961060
1890.482422	1761.187012
1889.496094	1669.667358
1888.508789	1742.837402
1887.522461	1671.614990
1886.535156	1770.081909
1885.547852	1650.774170
1884.559570	1645.421997
1883.572266	1622.354736
1882.583984	1735.944214
1881.595703	1725.519653
1880.607422	1694.861328
1879.619141	1702.151855
1878.630859	1739.784668
1877.641602	1661.101929
1876.653320	1718.951660
1875.664062	1690.848511
1874.674805	1733.510742
1873.684570	1672.569702
1872.695312	1715.220093
1871.705078	1689.662720
1870.715820	1752.496582
1869.725586	1731.990967
1868.735352	1734.211548
1867.744141	1751.574463
1866.753906	1779.025024
1865.762695	1808.988770
1864.771484	1745.607544
1863.780273	1694.859009
1862.789062	1737.430054
1861.797852	1724.518921
1860.805664	1696.487671
1859.813477	1703.750977
1858.821289	1741.250488
1857.829102	1730.866943
1856.836914	1755.753296
1855.844727	1720.185059
1854.851562	1745.064453
1853.858398	1749.793457
1852.865234	1616.072144
1851.872070	1761.763062
1850.878906	1794.166504
1849.884766	1733.469360
1848.890625	1687.886353
1847.897461	1634.774170
1846.903320	1629.457886
1845.908203	1744.822754
1844.914062	1749.543701
1843.918945	1751.749634
1842.923828	1751.442017
1841.929688	1726.010376
1840.933594	1715.659424
1839.938477	1748.007568
1838.943359	1785.366455
1837.947266	1759.946533
1836.951172	1701.903076
1835.955078	1759.328125
1834.958984	1738.944580
1833.961914	1685.952881
1832.965820	1755.892334
1831.968750	1730.503906
1830.971680	1715.154541
1829.974609	1827.672363
1828.977539	1737.111572
1827.979492	1801.967651
1826.982422	1741.512329
1825.984375	1796.323486
1824.986328	1793.502808
1823.988281	1815.727539
1822.989258	1715.247803
1821.991211	1800.067627
1820.992188	1727.160278
1819.993164	1784.418335
1818.994141	1776.597778
1817.995117	1716.241943
1816.995117	1773.471558
1815.996094	1655.615845
1814.996094	1752.843750
1813.996094	1812.536621
1812.996094	1757.226318
1811.996094	1701.935425
1810.995117	1784.094116
1809.994141	1788.776733
1808.993164	1753.492065
1807.992188	1705.732666
1806.991211	1865.238770
1805.990234	1775.035278
1804.988281	1724.801025
1803.986328	1784.393188
1802.984375	1851.449829
1801.982422	1776.280640
1800.980469	1808.394409
1799.977539	1760.692017
1798.975586	1800.277344
1797.972656	1727.662842
1796.969727	1797.150879
1795.966797	1786.865845
1794.962891	1721.766968
1793.959961	1801.184204
1792.956055	1753.541260
1791.952148	1773.155518
1790.948242	1815.172363
1789.943359	1777.510010
1788.939453	1789.642334
1787.934570	1811.724731
1786.929688	1769.106323
1785.924805	1853.378296
1784.919922	1743.609863
1783.915039	1725.894409
1782.909180	1733.049683
1781.903320	1765.062378
1780.897461	1782.150269
1779.891602	1747.044434
1778.885742	1826.246582
1777.879883	1778.723999
1776.873047	1840.505737
1775.866211	1681.245361
1774.859375	1795.164062
1773.852539	1735.267700
1772.844727	1859.064941
1771.837891	1766.916992
1770.830078	1751.718384
1769.822266	1820.870483
1768.814453	1775.903809
1767.806641	1812.788818
1766.797852	1834.784058
1765.789062	1829.502441
1764.781250	1853.965454
1763.772461	1769.382202
1762.762695	1840.923096
1761.753906	1810.871338
1760.744141	1765.969238
1759.735352	1758.228516
1758.725586	1733.158936
1757.714844	1757.608276
1756.705078	1858.775879
1755.695312	1766.886597
1754.684570	1801.213501
1753.673828	1768.736816
1752.663086	1701.645020
1751.652344	1810.151611
1750.640625	1819.721924
1749.629883	1750.184448
1748.618164	1782.005981
1747.606445	1781.691406
1746.594727	1754.199219
1745.583008	1790.943481
1744.570312	1728.881592
1743.557617	1822.413330
1742.545898	1809.746704
1741.533203	1787.210449
1740.519531	1794.299194
1739.506836	1870.479492
1738.493164	1877.550781
1737.479492	1815.549683
1736.465820	1817.695435
1735.452148	1832.169800
1734.438477	1836.777100
1733.423828	1698.410522
1732.410156	1749.867188
1731.395508	1734.772949
1730.380859	1771.422485
1729.366211	1793.279175
1728.350586	1805.276611
1727.334961	1768.021240
1726.320312	1676.615112
1725.304688	1863.396973
1724.288086	1759.700684
1723.272461	1781.535889
1722.256836	1869.789917
1721.240234	1820.263184
1720.223633	1817.481934
1719.207031	1871.257446
1718.190430	1853.717163
1717.172852	1865.679810
1716.155273	1808.824097
1715.138672	1739.702515
1714.121094	1746.765259
1713.102539	1736.630981
1712.084961	1775.618286
1711.066406	1834.235596
1710.048828	1873.191772
1709.030273	1840.950562
1708.011719	1806.266602
1706.992188	1828.030762
1705.973633	1881.679932
1704.954102	1839.648315
1703.934570	1812.346191
1702.915039	1804.669434
1701.895508	1855.833008
1700.875977	1737.850464
1699.855469	1818.415894
1698.834961	1898.952637
1697.814453	1766.325928
1696.793945	1832.146973
1695.773438	1839.169556
1694.751953	1858.432251
1693.730469	1804.245239
1692.709961	1830.850098
1691.687500	1842.762085
1690.666016	1805.734009
1689.644531	1891.036865
1688.622070	1817.324219
1687.599609	1941.722656
1686.577148	1828.906006
1685.554688	1809.025146
1684.532227	1908.916748
1683.508789	1830.378296
1682.485352	1815.394165
1681.461914	1844.387329
1680.438477	1814.751099
1679.415039	1863.270264
1678.391602	1836.082520
1677.367188	1855.286621
1676.342773	1874.483765
1675.318359	1842.427734
1674.293945	1846.980957
1673.268555	1893.003052
1672.244141	1931.691650
1671.218750	1892.332153
1670.193359	1867.615356
1669.167969	1903.849976
1668.141602	1820.645142
1667.116211	1827.632935
1666.089844	1905.274170
1665.063477	2002.375610
1664.037109	1880.243286
1663.010742	1960.268677
1661.983398	1930.704956
1660.957031	1884.111816
1659.929688	1869.174805
1658.902344	1978.345825
1657.875000	1902.573364
1656.846680	1950.886475
1655.819336	1977.293457
1654.791016	1886.971191
1653.762695	1971.729614
1652.734375	1961.656616
1651.705078	1905.410156
1650.676758	1890.492554
1649.647461	1977.619385
1648.618164	2062.286133
1647.588867	2020.633301
1646.559570	1940.143677
1645.529297	1922.804932
1644.500000	2038.976562
1643.469727	2011.918579
1642.439453	2089.209229
1641.409180	2103.394775
1640.377930	2134.554688
1639.347656	2039.592896
1638.316406	2114.398682
1637.285156	2121.296387
1636.253906	2108.800293
1635.222656	2135.083984
1634.190430	2030.513916
1633.158203	2180.355713
1632.125977	2114.569336
1631.093750	2133.567871
1630.061523	2164.666260
1629.029297	2057.762451
1627.996094	2212.306641
1626.962891	2250.634277
1625.929688	2308.305176
1624.896484	2339.344482
1623.863281	2300.228760
1622.829102	2275.636963
1621.794922	2296.993652
1620.760742	2303.837891
1619.726562	2293.760498
1618.692383	2348.934570
1617.657227	2350.933350
1616.622070	2304.616455
1615.587891	2451.541016
1614.551758	2325.531250
1613.516602	2426.524902
1612.481445	2467.132080
1611.445312	2403.939941
1610.409180	2473.494385
1609.373047	2470.641846
1608.336914	2429.193359
1607.300781	2510.765381
1606.263672	2495.850342
1605.226562	2517.105713
1604.189453	2519.068604
1603.152344	2528.261230
1602.115234	2494.075195
1601.077148	2496.041016
1600.039062	2406.468506
1599.000977	2432.533447
1597.962891	2593.437988
1596.924805	2482.227539
1595.885742	2505.857422
1594.847656	2515.038574
1593.808594	2521.810059
1592.769531	2405.879150
1591.730469	2525.723389
1590.690430	2472.363525
1589.651367	2572.916504
1588.611328	2490.716797
1587.571289	2552.770752
1586.531250	2545.106445
1585.490234	2530.236084
1584.450195	2500.956299
1583.409180	2550.953613
1582.368164	2500.065674
1581.327148	2429.986572
1580.285156	2391.142090
1579.244141	2455.524902
1578.202148	2464.687256
1577.160156	2447.451904
1576.118164	2315.069092
1575.076172	2460.971924
1574.033203	2508.497314
1572.991211	2390.560547
1571.948242	2318.214844
1570.905273	2308.214355
1569.862305	2444.402100
1568.818359	2374.481201
1567.775391	2251.881592
1566.731445	2371.239990
1565.687500	2366.027832
1564.643555	2334.479736
1563.598633	2317.306396
1562.554688	2295.352051
1561.509766	2311.694336
1560.464844	2304.104492
1559.419922	2253.457520
1558.374023	2281.757080
1557.329102	2307.655273
1556.283203	2290.507324
1555.237305	2206.431396
1554.191406	2277.740234
1553.145508	2186.527588
1552.098633	2303.209473
1551.052734	2276.521973
1550.005859	2178.192871
1548.958984	2106.166016
1547.912109	2210.841309
1546.864258	2136.447021
1545.816406	2171.865967
1544.769531	2142.843506
1543.721680	2142.461426
1542.672852	2144.464600
1541.625000	2077.302979
1540.576172	2160.391113
1539.528320	2164.773926
1538.479492	2107.179199
1537.430664	2152.084961
1536.380859	2118.341309
1535.332031	2086.991943
1534.282227	2115.203125
1533.232422	2155.312256
1532.182617	2107.304688
1531.132812	2095.024902
1530.082031	2075.608643
1529.031250	2110.936035
1527.981445	2093.903076
1526.929688	2150.625488
1525.878906	2185.920166
1524.828125	2154.613770
1523.776367	2092.407959
1522.724609	2194.258545
1521.672852	2105.921875
1520.621094	2096.040039
1519.569336	2143.186279
1518.516602	2064.408203
1517.463867	2123.419189
1516.411133	2127.789307
1515.358398	2082.296631
1514.305664	2005.959351
1513.251953	2117.155029
1512.198242	2078.807617
1511.144531	2116.398438
1510.090820	2127.881348
1509.037109	2063.462646
1507.982422	2008.552246
1506.927734	2117.256836
1505.873047	2119.249023
1504.818359	2066.728027
1503.763672	2104.273193
1502.708984	2129.958984
1501.653320	2124.840332
1500.597656	2171.828613
1499.541992	2005.681519
1498.486328	2092.922607
1497.429688	2064.142578
1496.373047	2059.040039
1495.317383	2091.799805
1494.260742	2067.767090
1493.203125	2112.340576
1492.146484	2173.453369
1491.088867	2177.793701
1490.031250	2075.744629
1488.973633	1999.733276
1487.916016	2103.361816
1486.858398	2110.074219
1485.799805	2093.159424
1484.741211	2095.146973
1483.682617	2142.004639
1482.624023	2025.921875
1481.565430	2075.135986
1480.505859	2062.962646
1479.446289	2114.512207
1478.386719	2057.505127
1477.327148	2035.904907
1476.267578	2146.398438
1475.207031	2153.088867
1474.147461	2126.767090
1473.086914	2050.949219
1472.026367	2100.078613
1470.964844	2116.198486
1469.904297	2054.559814
1468.842773	2117.796387
1467.781250	2148.036133
1466.719727	2119.392822
1465.658203	2097.822998
1464.595703	2057.428467
1463.533203	2078.242432
1462.471680	2082.576660
1461.409180	2056.322998
1460.345703	2100.649170
1459.283203	2074.401611
1458.219727	2076.381348
1457.156250	2184.159180
1456.092773	2066.234619
1455.029297	2105.818359
1453.965820	2025.546997
1452.901367	2135.605713
1451.836914	2163.410889
1450.772461	2094.914795
1449.708008	2174.375977
1448.642578	2115.293213
1447.578125	2114.913818
1446.512695	2084.025391
1445.447266	2200.974365
1444.381836	2127.852539
1443.315430	2052.411377
1442.250000	2068.459717
1441.183594	2246.291260
1440.117188	2168.524902
1439.050781	2067.346924
1437.983398	2191.182129
1436.916992	2172.044189
1435.849609	2166.969238
1434.782227	2138.473389
1433.714844	2140.431641
1432.647461	2161.120361
1431.579102	2249.689941
1430.510742	2153.322998
1429.442383	2213.780518
1428.374023	2161.909180
1427.305664	2168.539062
1426.236328	2228.960938
1425.167969	2149.052734
1424.098633	2141.652832
1423.028320	2127.242676
1421.958984	2194.639893
1420.889648	2119.468506
1419.819336	2182.169922
1418.749023	2167.762451
1417.678711	2172.044189
1416.608398	2178.659424
1415.537109	2171.264160
1414.465820	2215.225342
1413.395508	2228.830566
1412.323242	2132.759521
1411.251953	2146.374512
1410.180664	2255.620850
1409.108398	2213.236572
1408.036133	2203.511719
1406.963867	2219.435303
1405.891602	2123.468750
1404.818359	2218.637695
1403.746094	2246.199951
1402.672852	2173.576660
1401.599609	2236.075684
1400.525391	2282.250488
1399.452148	2242.257324
1398.377930	2255.822021
1397.303711	2220.502930
1396.229492	2324.825684
1395.155273	2275.546387
1394.081055	2270.484619
1393.005859	2293.335205
1391.930664	2304.550293
1390.855469	2280.885254
1389.780273	2278.150391
1388.704102	2305.631592
1387.628906	2300.569092
1386.552734	2272.274658
1385.476562	2271.865967
1384.400391	2338.811279
1383.323242	2312.847168
1382.247070	2293.857422
1381.169922	2390.939209
1380.092773	2318.561768
1379.014648	2292.619385
1377.937500	2271.326416
1376.859375	2389.218750
1375.782227	2337.766113
1374.704102	2383.721191
1373.625000	2336.924805
1372.546875	2255.375488
1371.467773	2419.515137
1370.388672	2409.811035
1369.309570	2265.741211
1368.230469	2411.259766
1367.151367	2348.296875
1366.071289	2424.284180
1364.991211	2370.601807
1363.911133	2340.084717
1362.831055	2388.261719
1361.750977	2376.262451
1360.669922	2336.507324
1359.588867	2430.917725
1358.507812	2300.977539
1357.426758	2335.244873
1356.345703	2429.604248
1355.263672	2449.968018
1354.181641	2285.454590
1353.099609	2395.944824
1352.017578	2377.032715
1350.935547	2360.437012
1349.852539	2350.774658
1348.769531	2403.453369
1347.686523	2403.020264
1346.603516	2340.272217
1345.520508	2436.767090
1344.436523	2325.585693
1343.352539	2452.035645
1342.268555	2467.737793
1341.184570	2411.951660
1340.100586	2429.960449
1339.015625	2422.607178
1337.930664	2445.216553
1336.845703	2352.606934
1335.760742	2333.752197
1334.675781	2427.770264
1333.589844	2434.241211
1332.503906	2445.314941
1331.417969	2417.248291
1330.332031	2347.760498
1329.246094	2372.651367
1328.159180	2381.426758
1327.072266	2362.593262
1325.985352	2348.366455
1324.898438	2262.855713
1323.811523	2319.928223
1322.723633	2344.796631
1321.635742	2378.849609
1320.547852	2355.440186
1319.459961	2290.683105
1318.371094	2324.727051
1317.283203	2400.099854
1316.194336	2319.294922
1315.105469	2305.100830
1314.016602	2309.275635
1312.926758	2313.448730
1311.837891	2285.495117
1310.748047	2340.144531
1309.658203	2319.077393
1308.568359	2316.364990
1307.477539	2226.519043
1306.387695	2299.480225
1305.296875	2225.714844
1304.206055	2289.482422
1303.114258	2263.863770
1302.023438	2364.256592
1300.931641	2269.917480
1299.840820	2237.445801
1298.748047	2243.910645
1297.656250	2165.669189
1296.564453	2252.255127
1295.471680	2313.636475
1294.378906	2290.337891
1293.286133	2216.719727
1292.193359	2223.180664
1291.099609	2204.484131
1290.006836	2254.386475
1288.913086	2224.260986
1287.819336	2189.575439
1286.725586	2175.468506
1285.630859	2179.644775
1284.536133	2179.250488
1283.442383	2231.386475
1282.346680	2128.225342
1281.251953	2171.219238
1280.157227	2166.260986
1279.061523	2238.901611
1277.965820	2261.315186
1276.870117	2187.900146
1275.774414	2146.445801
1274.677734	2235.001465
1273.581055	2154.790039
1272.485352	2111.084229
1271.387695	2195.039062
1270.291016	2112.599121
1269.194336	2212.473145
1268.096680	2105.000000
1266.999023	2179.784180
1265.901367	2147.507080
1264.803711	2192.656494
1263.705078	2098.923340
1262.606445	2146.341064
1261.507812	2189.190186
1260.409180	2118.260986
1259.310547	2111.052734
1258.210938	2087.926270
1257.111328	2046.615845
1256.011719	2093.990967
1254.912109	2100.431152
1253.812500	2152.324951
1252.711914	2086.036133
1251.612305	2078.842529
1250.511719	2076.194336
1249.410156	2028.124390
1248.309570	2082.254395
1247.208008	2084.147461
1246.107422	2058.800781
1245.005859	2006.229492
1243.903320	2017.211304
1242.801758	2030.457764
1241.699219	2061.845459
1240.597656	2036.525391
1239.495117	2097.376953
1238.391602	2090.195801
1237.289062	2051.284424
1236.185547	2078.106934
1235.082031	2043.743286
1233.978516	2025.249756
1232.875000	2058.856934
1231.771484	2026.779907
1230.666992	2053.582031
1229.562500	2014.726196
1228.458008	2104.893799
1227.353516	2043.413330
1226.248047	2018.155151
1225.143555	2024.575317
1224.038086	2055.871582
1222.931641	1998.966797
1221.826172	2095.821289
1220.720703	2011.804321
1219.614258	2052.120117
1218.507812	2006.554932
1217.401367	2076.226807
1216.294922	1983.238647
1215.187500	1915.126587
1214.080078	1955.422852
1212.972656	1984.416504
1211.865234	1972.770508
1210.757812	2015.290894
1209.649414	2093.897461
1208.541016	1940.113037
1207.432617	1984.871460
1206.324219	1975.490601
1205.215820	2002.188477
1204.106445	1988.299072
1202.997070	1963.145020
1201.887695	1901.944336
1200.778320	2036.783691
1199.668945	1971.086304
1198.558594	1923.430786
1197.448242	2037.925781
1196.337891	1974.515137
1195.227539	1836.843384
1194.117188	1976.048340
1193.005859	1939.685913
1191.894531	1885.338013
1190.783203	1983.968994
1189.671875	2019.592163
1188.559570	1900.050415
1187.447266	1962.653931
1186.334961	2013.995728
1185.222656	1890.025146
1184.110352	1979.559326
1182.998047	1914.049927
1181.884766	1938.409302
1180.771484	1962.759766
1179.658203	1850.137329
1178.543945	2004.699219
1177.430664	1972.911743
1176.316406	1961.332520
1175.202148	1904.883911
1174.087891	1868.645020
1172.972656	1984.934082
1171.858398	1899.359741
1170.743164	1809.332275
1169.627930	1896.427002
1168.512695	1907.288208
1167.396484	1875.569580
1166.281250	1870.747559
1165.165039	1843.526978
1164.048828	1937.254761
1162.931641	1860.769653
1161.815430	1909.684326
1160.698242	1792.941040
1159.581055	1790.376709
1158.463867	1863.890381
1157.346680	1825.519409
1156.228516	1925.840820
1155.111328	1885.235962
1153.993164	1867.005249
1152.875000	1759.359985
1151.755859	1817.152832
1150.637695	1852.577271
1149.518555	1791.913574
1148.399414	1860.838135
1147.280273	1757.758545
1146.160156	1822.197876
1145.041016	1824.098633
1143.920898	1879.573120
1142.800781	1825.665894
1141.680664	1800.787231
1140.559570	1845.080200
1139.439453	1755.518188
1138.318359	1793.112305
1137.197266	1806.164551
1136.075195	1772.394043
1134.954102	1798.819214
1133.832031	1789.576904
1132.709961	1775.881470
1131.587891	1762.190918
1130.465820	1759.642334
1129.342773	1830.585205
1128.220703	1712.242554
1127.097656	1767.584717
1125.974609	1856.293335
1124.850586	1784.743042
1123.727539	1773.292847
1122.603516	1739.601074
1121.479492	1763.749512
1120.355469	1783.441406
1119.230469	1754.212769
1118.106445	1796.128418
1116.981445	1720.234863
1115.856445	1771.029785
1114.730469	1726.272461
1113.605469	1777.047607
1112.479492	1758.956055
1111.353516	1731.989136
1110.227539	1747.213623
1109.101562	1764.652344
1107.974609	1746.575928
1106.848633	1739.600586
1105.721680	1754.812256
1104.594727	1750.055786
1103.466797	1718.689087
1102.339844	1742.765137
1101.211914	1811.169434
1100.083984	1693.366943
1098.956055	1728.514404
1097.827148	1697.179810
1096.699219	1747.820190
1095.570312	1740.856567
1094.441406	1691.821167
1093.311523	1769.002930
1092.182617	1762.038940
1091.052734	1772.783081
1089.922852	1695.010986
1088.792969	1679.214478
1087.663086	1718.723633
1086.532227	1760.429932
1085.402344	1744.629883
1084.271484	1680.198242
1083.139648	1763.885742
1082.008789	1725.993774
1080.876953	1734.516602
1079.746094	1595.021729
1078.614258	1749.343872
1077.481445	1702.648438
1076.349609	1715.584961
1075.216797	1600.478394
1074.083984	1688.471802
1072.951172	1670.509033
1071.818359	1681.235352
1070.685547	1716.222900
1069.551758	1682.826050
1068.417969	1757.492798
1067.284180	1730.714600
1066.149414	1681.902832
1065.015625	1692.614746
1063.880859	1696.712158
1062.746094	1714.026611
1061.611328	1678.469604
1060.476562	1720.006470
1059.340820	1728.499390
1058.205078	1732.586060
1057.069336	1686.045776
1055.933594	1703.342896
1054.796875	1648.023560
1053.661133	1724.718262
1052.524414	1711.205688
1051.387695	1673.507812
1050.250000	1675.400146
1049.113281	1661.903687
1047.975586	1749.514771
1046.837891	1718.429688
1045.700195	1753.268311
1044.561523	1709.013672
1043.423828	1677.952881
1042.285156	1785.243286
1041.146484	1727.834106
1040.007812	1727.517578
1038.868164	1709.643799
1037.728516	1696.165039
1036.589844	1698.048218
1035.449219	1695.543579
1034.309570	1712.777466
1033.169922	1681.766357
1032.029297	1714.342041
1030.888672	1694.301147
1029.748047	1683.033447
1028.606445	1680.533936
1027.465820	1645.175537
1026.324219	1690.869141
1025.182617	1679.609985
1024.041016	1633.323730
1022.898438	1639.591431
1021.756836	1687.440918
1020.614258	1645.554932
1019.471680	1632.126221
1018.328125	1688.700195
1017.185547	1631.527588
1016.041992	1653.094727
1014.898438	1718.378540
1013.754883	1663.417480
1012.610352	1684.966675
1011.466797	1699.952759
1010.322266	1758.625977
1009.177734	1642.539185
1008.033203	1668.443726
1006.887695	1707.439331
1005.742188	1595.791626
1004.597656	1715.543213
1003.451172	1662.854980
1002.305664	1656.004272
1001.160156	1714.598755
1000.013672	1736.094238
998.867188	1650.731323
997.720703	1626.445801
996.573242	1704.620850
995.426758	1678.154785
994.279297	1680.025635
993.131836	1649.216553
991.983398	1633.666138
990.835938	1689.989380
989.687500	1678.791992
988.539062	1702.430786
987.390625	1641.172729
986.242188	1697.453003
985.092773	1705.844482
983.944336	1688.127686
982.794922	1666.067383
981.644531	1733.174561
980.495117	1704.591187
979.344727	1680.365967
978.194336	1632.241821
977.043945	1644.979980
975.893555	1657.713379
974.742188	1694.336548
973.591797	1707.056030
972.440430	1682.856567
971.289062	1725.967773
970.136719	1621.460205
968.985352	1671.077393
967.833008	1623.033813
966.680664	1672.632324
965.528320	1615.929932
964.375000	1661.174072
963.221680	1643.522705
962.069336	1610.702881
960.915039	1699.271484
959.761719	1640.448853
958.608398	1663.980225
957.454102	1574.858154
956.299805	1713.182373
955.145508	1652.234741
953.990234	1643.270508
952.834961	1599.675171
951.680664	1668.636719
950.525391	1590.431030
949.369141	1657.205322
948.213867	1641.758911
947.057617	1671.734009
945.901367	1608.720703
944.745117	1666.794800
943.588867	1642.711792
942.431641	1618.637695
941.274414	1592.411621
940.117188	1654.766235
938.959961	1654.461548
937.801758	1684.389404
936.644531	1643.056763
935.486328	1614.691406
934.328125	1676.984131
933.168945	1680.990967
932.010742	1577.121948
930.851562	1704.099609
929.692383	1623.988159
928.533203	1666.814697
927.373047	1610.454346
926.213867	1702.843994
925.053711	1612.015991
923.893555	1661.277100
922.732422	1609.267456
921.572266	1669.280396
920.411133	1617.288330
919.250000	1640.674438
918.088867	1618.844849
916.926758	1659.440552
915.765625	1577.361450
914.603516	1628.707275
913.441406	1692.940918
912.279297	1625.955933
911.116211	1672.963501
909.953125	1649.005615
908.790039	1646.551880
907.626953	1588.221191
906.463867	1607.266968
905.299805	1688.608032
904.135742	1619.561768
902.971680	1668.656860
901.807617	1599.639648
900.643555	1717.416870
899.478516	1654.855103
898.313477	1630.943970
897.148438	1589.876831
895.982422	1550.970093
894.817383	1589.290039
893.651367	1672.628052
892.485352	1592.991333
891.319336	1661.292603
890.152344	1686.704346
888.986328	1589.966431
887.819336	1643.233154
886.652344	1645.071777
885.484375	1610.501953
884.317383	1603.780884
883.149414	1573.512939
881.981445	1637.435547
880.813477	1620.012695
879.644531	1656.087524
878.475586	1647.224487
877.307617	1708.947021
876.137695	1635.923584
874.968750	1682.658813
873.798828	1678.072510
872.629883	1645.703247
871.459961	1626.167236
870.289062	1660.050415
869.119141	1612.749634
867.948242	1629.537109
866.777344	1639.912354
865.606445	1667.363037
864.435547	1656.382202
863.263672	1683.819458
862.092773	1596.025513
860.920898	1614.930298
859.748047	1631.695190
858.576172	1682.574463
857.403320	1609.770264
856.230469	1669.161621
855.057617	1685.903687
853.884766	1596.091431
852.710938	1685.280029
851.538086	1663.666504
850.364258	1620.763062
849.189453	1660.921509
848.015625	1654.227295
846.840820	1651.792603
845.666016	1640.845825
844.491211	1632.030884
843.316406	1674.277222
842.140625	1652.697144
840.965820	1709.810181
839.790039	1711.619873
838.613281	1683.667114
837.437500	1625.968262
836.260742	1625.667236
835.083984	1657.236084
833.907227	1663.302002
832.730469	1599.277832
831.552734	1730.637451
830.375977	1696.347534
829.198242	1634.475220
828.019531	1655.395508
826.841797	1612.650635
825.663086	1642.053101
824.484375	1713.867065
823.305664	1611.754517
822.126953	1753.518433
820.947266	1687.475220
819.767578	1653.249756
818.587891	1693.207275
817.408203	1654.755737
816.228516	1703.171631
815.047852	1679.558105
813.867188	1615.719238
812.686523	1638.708862
811.504883	1695.558716
810.324219	1650.799683
809.142578	1646.261597
807.960938	1694.615723
806.779297	1609.692139
805.596680	1674.953735
804.415039	1668.299683
803.232422	1722.955688
802.048828	1591.588989
800.866211	1599.746826
799.682617	1635.369019
798.500000	1704.777710
797.315430	1645.322754
796.131836	1680.916504
794.948242	1651.046143
793.763672	1692.958252
792.579102	1739.075684
791.394531	1654.347412
790.208984	1681.467041
789.024414	1708.576538
787.838867	1657.644287
786.653320	1726.919434
785.466797	1667.569824
784.281250	1715.739380
783.094727	1702.776489
781.908203	1696.139282
780.721680	1676.864746
779.534180	1676.553345
778.347656	1686.771118
777.160156	1616.978271
775.972656	1629.308350
774.784180	1629.005615
773.596680	1664.475586
772.408203	1607.361694
771.219727	1710.133911
770.031250	1695.094482
768.841797	1629.595703
767.653320	1717.590088
766.463867	1666.824707
765.274414	1592.961304
764.083984	1634.688110
762.894531	1630.182739
761.704102	1705.492676
760.513672	1654.776367
759.322266	1683.862915
758.131836	1643.665161
756.940430	1706.323608
755.749023	1729.088867
754.557617	1718.277222
753.365234	1678.102661
752.173828	1692.471313
750.981445	1706.834473
749.789062	1685.552368
748.595703	1727.160278
747.403320	1647.203247
746.209961	1648.992065
745.016602	1579.553589
743.823242	1677.701660
742.628906	1704.613037
741.435547	1603.796875
740.241211	1687.231934
739.046875	1622.036499
737.851562	1655.215576
736.657227	1705.119629
735.461914	1656.691284
734.266602	1652.200073
733.070312	1714.622559
731.875000	1643.222534
730.678711	1640.826416
729.482422	1688.587036
728.286133	1686.183228
727.089844	1677.512939
725.892578	1714.796631
724.695312	1626.769531
723.498047	1657.784790
722.300781	1655.388550
721.102539	1726.041992
719.904297	1729.893921
718.706055	1733.744263
717.507812	1639.553711
716.308594	1722.670532
715.110352	1672.305420
713.911133	1763.724121
712.711914	1694.610596
711.511719	1748.478760
710.311523	1616.885132
709.112305	1643.665771
707.912109	1637.110840
706.710938	1670.124878
705.510742	1626.090210
704.309570	1609.133667
703.108398	1708.735229
701.907227	1645.989746
700.705078	1687.292969
699.502930	1776.423584
698.301758	1674.185303
697.098633	1732.094727
695.896484	1686.034546
694.693359	1671.170044
693.491211	1647.998291
692.287109	1685.091187
691.083984	1782.414795
689.880859	1711.463623
688.676758	1704.914429
687.472656	1725.358643
686.268555	1617.092163
685.063477	1645.846924
683.858398	1664.215454
682.654297	1682.577026
681.448242	1713.377563
680.243164	1671.579346
679.037109	1662.973145
677.832031	1693.759888
676.625977	1643.697388
675.418945	1589.508789
674.212891	1653.443481
673.005859	1706.996216
671.798828	1621.757812
670.591797	1729.137695
669.383789	1753.660034
668.176758	1722.281616
666.968750	1676.427368
665.760742	1628.520752
664.551758	1744.074341
663.343750	1692.035889
662.134766	1689.651611
660.925781	1691.403564
659.715820	1676.616089
658.506836	1748.646240
657.296875	1729.720215
656.086914	1723.198364
654.876953	1724.942017
653.666016	1679.180542
652.456055	1736.687378
651.245117	1672.358765
650.034180	1707.138428
648.822266	1754.288086
647.611328	1692.055664
646.399414	1675.234375
645.187500	1763.617676
643.974609	1680.794800
642.762695	1705.223633
641.549805	1676.042969
640.336914	1725.197388
639.124023	1683.659058
637.910156	1695.706421
636.696289	1664.488892
635.483398	1668.296753
634.268555	1750.354126
633.054688	1684.143188
631.839844	1714.705078
630.625000	1745.255371
629.410156	1670.851562
628.195312	1649.965576
626.979492	1729.876953
625.764648	1688.422241
624.548828	1671.656860
623.332031	1718.626587
622.116211	1708.027832
620.899414	1689.212891
619.682617	1740.262085
618.465820	1707.068359
617.248047	1731.394775
616.031250	1768.032837
614.813477	1714.321655
613.595703	1709.895020
612.376953	1715.731689
611.159180	1756.448730
609.940430	1643.284790
608.721680	1720.920776
607.502930	1753.410645
606.283203	1697.721558
605.063477	1719.953491
603.843750	1754.474609
602.624023	1661.930176
601.403320	1680.058228
600.183594	1640.822388
598.962891	1747.015137
597.742188	1703.685913
596.520508	1662.420044
595.299805	1686.671509
594.078125	1686.355225
592.856445	1704.454468
591.633789	1673.448120
590.412109	1711.996704
589.189453	1654.415161
587.966797	1660.238770
586.743164	1711.033447
585.520508	1722.975586
584.296875	1673.608765
583.073242	1685.553345
581.849609	1752.646484
580.625000	1713.513428
579.401367	1780.575928
578.176758	1778.200195
576.952148	1688.054565
575.726562	1781.614258
574.500977	1746.592773
573.276367	1689.144165
572.049805	1633.756592
570.824219	1731.334351
569.598633	1757.514771
568.372070	1720.491699
567.145508	1691.635010
565.917969	1746.336060
564.691406	1729.709351
563.463867	1729.384399
562.236328	1672.035156
561.008789	1734.843262
559.780273	1724.338257
558.552734	1693.482788
557.324219	1825.443115
556.094727	1703.019775
554.866211	1800.345581
553.636719	1726.786621
552.407227	1730.529175
551.177734	1703.773071
549.948242	1740.042480
548.717773	1680.776367
547.488281	1696.716431
546.256836	1698.428955
545.026367	1777.327759
543.795898	1728.253174
542.564453	1654.831299
541.333008	1721.512939
540.100586	1741.486206
538.869141	1747.246582
537.636719	1677.933960
536.404297	1764.846436
535.171875	1721.922729
533.939453	1719.570923
532.706055	1727.357056
531.472656	1753.383545
530.239258	1742.920288
529.004883	1635.200073
527.771484	1707.824341
526.537109	1707.502930
525.302734	1723.382568
524.067383	1747.355103
522.833008	1676.173462
521.597656	1645.498169
520.362305	1780.769653
519.126953	1614.530273
517.890625	1670.865845
516.654297	1721.112671
515.417969	1708.656128
514.181641	1663.856934
512.944336	1697.906006
511.708008	1679.397705
510.470703	1763.944702
509.233398	1711.087891
507.995117	1735.003052
506.756836	1688.229736
505.518555	1736.368408
504.280273	1705.761475
503.041992	1673.147705
501.802734	1697.047119
500.563477	1680.587158
499.324219	1708.510254
498.084961	1675.920166
496.844727	1697.784424
495.604492	1685.368408
494.364258	1679.003784
493.124023	1702.870117
491.882812	1680.385620
490.642578	1690.141113
489.401367	1679.751953
488.159180	1804.285278
486.917969	1733.478394
485.675781	1700.944214
484.433594	1773.075928
483.191406	1702.314819
481.948242	1714.064575
480.705078	1755.981323
479.462891	1683.252075
478.218750	1697.009155
476.975586	1763.028687
475.731445	1760.686035
474.487305	1748.296509
473.243164	1689.701050
471.999023	1751.654175
470.753906	1723.206055
469.508789	1730.912842
468.263672	1698.463745
467.018555	1674.056030
465.772461	1721.905151
464.526367	1735.625488
463.280273	1753.352905
462.034180	1771.073486
460.787109	1664.454590
459.540039	1706.244995
458.292969	1723.964111
457.045898	1771.739990
455.797852	1703.274414
454.550781	1718.980347
453.302734	1720.658691
452.053711	1676.273804
450.805664	1705.992188
449.556641	1765.728638
448.307617	1677.325317
447.058594	1717.032349
445.808594	1754.723511
444.559570	1710.381958
443.309570	1720.059082
442.059570	1707.735718
440.808594	1727.406006
439.557617	1697.095337
438.307617	1712.762939
437.055664	1698.451782
435.804688	1656.176880
434.552734	1723.776001
433.300781	1747.414551
432.048828	1727.117310
430.796875	1702.835205
429.543945	1682.553955
428.291016	1704.186523
427.038086	1671.941528
425.785156	1735.458130
424.531250	1753.079346
423.278320	1657.034546
422.023438	1720.517578
420.769531	1632.488159
419.515625	1785.631836
418.260742	1659.765381
417.005859	1687.341187
415.750000	1738.807495
414.495117	1690.685181
413.239258	1692.356079
411.983398	1739.810791
410.727539	1715.598267
409.470703	1685.425171
408.214844	1714.948486
406.958008	1700.699829
405.700195	1700.377808
404.443359	1654.323120
403.185547	1695.757690
401.927734	1639.783203
400.669922	1675.242798
399.411133	1712.675781
398.153320	1736.189087
396.894531	1690.179565
395.635742	1785.174438
394.375977	1691.524414
393.116211	1665.399048
391.857422	1726.606079
390.596680	1740.168457
389.336914	1721.983887
388.076172	1703.806152
386.815430	1757.026733
385.554688	1724.970093
384.293945	1659.225464
383.032227	1607.379517
381.770508	1678.412231
380.508789	1749.417847
379.247070	1697.583984
377.984375	1726.968994
376.721680	1728.621582
375.458984	1793.624268
374.196289	1686.399536
372.932617	1743.469604
371.668945	1679.823853
370.405273	1707.200073
369.141602	1736.543701
367.876953	1706.552246
366.613281	1682.503296
365.347656	1690.090698
364.083008	1600.834717
362.818359	1622.266357
361.552734	1766.176392
360.287109	1682.882080
359.020508	1670.713501
357.754883	1686.192017
356.488281	1662.182739
355.221680	1648.051025
353.955078	1685.231445
352.687500	1724.370728
351.419922	1726.015747
350.152344	1698.076782
348.884766	1662.261108
347.616211	1673.774170
346.348633	1714.848999
345.080078	1740.142456
343.810547	1670.849854
342.541992	1749.331055
341.272461	1678.093140
340.002930	1610.820801
338.733398	1701.081421
337.462891	1657.451782
336.193359	1668.945312
334.922852	1676.498901
333.651367	1638.800537
332.380859	1648.323730
331.109375	1693.242188
329.837891	1685.055298
328.566406	1674.905518
327.293945	1615.622681
326.022461	1597.629395
324.750000	1668.055786
323.477539	1612.736572
322.204102	1637.961426
320.930664	1680.849243
319.657227	1651.080933
318.383789	1580.103760
317.110352	1691.664917
315.835938	1620.706787
314.561523	1687.097534
313.287109	1651.471802
312.011719	1619.781616
310.737305	1690.055542
309.461914	1772.064331
308.185547	1689.412109
306.910156	1671.454956
305.633789	1655.463745
304.357422	1704.117310
303.081055	1688.125732
301.804688	1634.937988
300.527344	1699.228638
299.250000	1673.460571
297.972656	1634.004028
296.694336	1653.257935
295.416992	1605.995483
294.138672	1627.203003
292.860352	1624.937500
291.581055	1661.773438
290.301758	1645.819458
289.022461	1641.597290
287.743164	1592.436646
286.463867	1644.878662
285.183594	1687.534790
283.903320	1568.092651
282.623047	1686.891357
281.342773	1620.200195
280.061523	1582.809448
278.780273	1619.582397
277.499023	1640.733765
276.216797	1556.546753
274.935547	1612.805420
273.653320	1620.296997
272.370117	1594.645264
271.087891	1576.799438
269.804688	1664.190063
268.521484	1630.750977
267.238281	1589.532837
265.955078	1622.338501
264.670898	1532.457031
263.386719	1633.400391
262.102539	1559.122803
260.817383	1619.154297
259.533203	1679.162842
258.248047	1698.295776
256.962891	1612.392334
255.676758	1660.699829
254.390625	1584.557251
253.104492	1560.928345
251.818359	1603.387207
250.532227	1649.716187
249.245117	1639.687256
247.958008	1583.044922
246.670898	1580.800537
245.382812	1590.206787
244.095703	1607.374512
242.807617	1638.121948
241.518555	1517.495972
240.230469	1649.136963
238.941406	1565.410889
237.652344	1603.900146
236.363281	1558.995483
235.074219	1550.942871
233.784180	1546.769775
232.494141	1565.853516
231.204102	1615.930908
229.913086	1619.496338
228.622070	1599.818481
227.331055	1638.241699
226.040039	1543.060303
224.749023	1577.608154
223.457031	1542.470215
222.165039	1586.679688
220.873047	1628.937500
219.580078	1618.954712
218.287109	1568.364624
216.994141	1517.793701
215.701172	1507.837646
214.407227	1480.490601
213.114258	1547.840820
211.820312	1599.709106
210.525391	1616.787720
209.231445	1560.471313
207.936523	1556.310913
206.641602	1542.499268
205.346680	1592.388306
204.050781	1539.978882
202.754883	1566.696167
201.458984	1529.744019
200.163086	1560.310181
198.866211	1527.229980
197.569336	1498.018188
196.272461	1543.993286
194.975586	1503.226196
193.677734	1470.181885
192.379883	1498.797363
191.082031	1494.658081
189.784180	1567.549683
188.485352	1530.667480
187.187500	1486.099121
185.887695	1505.060669
184.588867	1447.044434
183.289062	1487.168945
181.989258	1506.119141
180.689453	1511.599976
179.389648	1434.398682
178.088867	1489.873901
176.788086	1466.523682
175.487305	1504.676147
174.186523	1510.151611
172.884766	1481.047852
171.583008	1444.272949
170.281250	1509.282959
168.979492	1457.157837
167.676758	1489.509399
166.374023	1475.790039
165.071289	1481.263062
163.767578	1519.346313
162.463867	1490.284790
161.160156	1501.504639
159.856445	1533.810059
158.552734	1424.252686
157.248047	1492.974365
155.943359	1454.364624
154.638672	1436.843384
153.333008	1461.468140
152.027344	1476.508057
150.721680	1478.139282
149.416016	1433.826172
148.110352	1439.292725
146.803711	1395.003906
145.497070	1440.653320
144.189453	1411.683838
142.882812	1407.587769
141.575195	1472.329346
140.267578	1475.870117
138.959961	1416.333740
137.651367	1433.260864
136.342773	1436.806763
135.034180	1430.799927
133.725586	1413.335693
132.416016	1386.330566
131.106445	1407.065063
129.796875	1330.442139
128.487305	1358.813232
127.176758	1326.114624
125.866211	1302.967163
124.555664	1277.921265
123.244141	1283.396484
121.933594	1262.177002
120.622070	1195.215820
119.309570	1160.680176
117.998047	1091.858521
116.685547	1114.510254
115.373047	1005.723511
114.060547	853.177063
112.748047	763.522705
111.434570	641.540283
110.121094	532.927979
108.806641	395.813202
107.493164	344.367310
106.178711	291.039032
104.864258	205.399780
103.549805	146.414246
102.234375	85.550301
100.918945	95.037598
99.603516	79.816216
