#Wave		#Intensity
1998.943359	16150.599609
1997.975586	16197.097656
1997.007812	15990.232422
1996.039062	16163.046875
1995.071289	15974.331055
1994.102539	16180.645508
1993.133789	16296.552734
1992.165039	16337.581055
1991.196289	16241.848633
1990.227539	16288.031250
1989.257812	16058.219727
1988.288086	16207.567383
1987.318359	16176.379883
1986.348633	16109.112305
1985.378906	16242.906250
1984.409180	16448.808594
1983.438477	16396.986328
1982.467773	16118.486328
1981.497070	16118.250977
1980.526367	16205.570312
1979.555664	16089.456055
1978.584961	16271.997070
1977.613281	16307.765625
1976.641602	16294.626953
1975.669922	16091.095703
1974.698242	16348.108398
1973.726562	16170.358398
1972.753906	16260.113281
1971.782227	16064.440430
1970.809570	16210.737305
1969.836914	16233.610352
1968.863281	16094.578125
1967.890625	16323.009766
1966.917969	16022.168945
1965.944336	16281.353516
1964.970703	16237.423828
1963.997070	16190.940430
1963.023438	16339.573242
1962.048828	16400.886719
1961.075195	16274.845703
1960.100586	16248.912109
1959.125977	16474.386719
1958.151367	16166.291992
1957.176758	16242.965820
1956.201172	16296.536133
1955.226562	16214.220703
1954.250977	16129.371094
1953.275391	16077.863281
1952.299805	16118.612305
1951.323242	16313.048828
1950.347656	16346.057617
1949.371094	16194.673828
1948.394531	16150.877930
1947.417969	16114.777344
1946.441406	16150.353516
1945.464844	16011.902344
1944.487305	16183.088867
1943.509766	16379.795898
1942.532227	16177.432617
1941.554688	16210.407227
1940.577148	16187.119141
1939.599609	16214.965820
1938.621094	16191.684570
1937.642578	16434.177734
1936.664062	16377.650391
1935.685547	16264.940430
1934.707031	16435.777344
1933.727539	16054.959961
1932.749023	16345.773438
1931.769531	16034.029297
1930.790039	16248.173828
1929.810547	16138.153320
1928.830078	16168.499023
1927.850586	16206.487305
1926.870117	16463.808594
1925.889648	16124.315430
1924.909180	16116.395508
1923.928711	16149.265625
1922.948242	16233.098633
1921.966797	16169.098633
1920.985352	16150.982422
1920.003906	16341.761719
1919.022461	16354.184570
1918.041016	15999.900391
1917.059570	16228.794922
1916.077148	16559.435547
1915.094727	16156.939453
1914.112305	16019.240234
1913.129883	16263.234375
1912.147461	16446.089844
1911.164062	16102.392578
1910.180664	16114.832031
1909.197266	16251.850586
1908.213867	16302.388672
1907.230469	15938.622070
1906.247070	16154.374023
1905.262695	16202.360352
1904.278320	16222.385742
1903.294922	16250.023438
1902.309570	16150.679688
1901.325195	16203.708984
1900.340820	16066.329102
1899.355469	16033.057617
1898.370117	16172.357422
1897.384766	16123.855469
1896.399414	16143.861328
1895.414062	16227.267578
1894.427734	16161.028320
1893.442383	16282.431641
1892.456055	16185.785156
1891.469727	16101.844727
1890.482422	16205.454102
1889.496094	15847.905273
1888.508789	16258.038086
1887.522461	16227.329102
1886.535156	16125.724609
1885.547852	16100.111328
1884.559570	16190.952148
1883.572266	16256.450195
1882.583984	16071.402344
1881.595703	16068.584961
1880.607422	15969.641602
1879.619141	16333.575195
1878.630859	15888.179688
1877.641602	16289.923828
1876.653320	16044.391602
1875.664062	16261.463867
1874.674805	15942.739258
1873.684570	15891.939453
1872.695312	15964.934570
1871.705078	16411.701172
1870.715820	16201.754883
1869.725586	16153.466797
1868.735352	15933.541992
1867.744141	16087.226562
1866.753906	16144.966797
1865.762695	16106.812500
1864.771484	16083.805664
1863.780273	16159.168945
1862.789062	16068.075195
1861.797852	16123.244141
1860.805664	16009.500000
1859.813477	16167.992188
1858.821289	15835.047852
1857.829102	16008.629883
1856.836914	15799.260742
1855.844727	16166.717773
1854.851562	16121.071289
1853.858398	16163.559570
1852.865234	15987.032227
1851.872070	16150.333984
1850.878906	15749.913086
1849.884766	15968.548828
1848.890625	16151.889648
1847.897461	15847.249023
1846.903320	15967.680664
1845.908203	16078.013672
1844.914062	16047.539062
1843.918945	16039.693359
1842.923828	16009.235352
1841.929688	16056.670898
1840.933594	15862.941406
1839.938477	16221.811523
1838.943359	16168.740234
1837.947266	16105.644531
1836.951172	16125.406250
1835.955078	15984.537109
1834.958984	15944.088867
1833.961914	15926.233398
1832.965820	16159.225586
1831.968750	16304.356445
1830.971680	16178.621094
1829.974609	15997.774414
1828.977539	16198.000977
1827.979492	16202.671875
1826.982422	16212.352539
1825.984375	16264.619141
1824.986328	15938.628906
1823.988281	16103.625000
1822.989258	16108.305664
1821.991211	16045.386719
1820.992188	16300.387695
1819.993164	15982.182617
1818.994141	16099.479492
1817.995117	16066.625977
1816.995117	16138.840820
1815.996094	16141.003906
1814.996094	15903.119141
1813.996094	16080.325195
1812.996094	16087.494141
1811.996094	15982.198242
1810.995117	16174.287109
1809.994141	15971.578125
1808.993164	16385.908203
1807.992188	16505.398438
1806.991211	16145.426758
1805.990234	16182.530273
1804.988281	15989.978516
1803.986328	15942.242188
1802.984375	15797.208984
1801.982422	15984.031250
1800.980469	16071.013672
1799.977539	16128.038086
1798.975586	16182.548828
1797.972656	16202.136719
1796.969727	16082.132812
1795.966797	15939.740234
1794.962891	15897.066406
1793.959961	16036.269531
1792.956055	16045.899414
1791.952148	16155.140625
1790.948242	15923.219727
1789.943359	16234.093750
1788.939453	16345.731445
1787.934570	16225.886719
1786.929688	16106.083008
1785.924805	16026.125000
1784.919922	15978.530273
1783.915039	16045.347656
1782.909180	16109.654297
1781.903320	16186.367188
1780.897461	15992.126953
1779.891602	15912.269531
1778.885742	16051.092773
1777.879883	16100.432617
1776.873047	16216.818359
1775.866211	15893.604492
1774.859375	16057.159180
1773.852539	15922.756836
1772.844727	15932.359375
1771.837891	15961.812500
1770.830078	16120.275391
1769.822266	16122.394531
1768.814453	15928.567383
1767.806641	15985.275391
1766.797852	16054.360352
1765.789062	15897.831055
1764.781250	15909.898438
1763.772461	15966.567383
1762.762695	16117.368164
1761.753906	16057.548828
1760.744141	15945.736328
1759.735352	16148.462891
1758.725586	15940.110352
1757.714844	15781.341797
1756.705078	15884.985352
1755.695312	16020.761719
1754.684570	15815.050781
1753.673828	15953.263672
1752.663086	16309.080078
1751.652344	15801.733398
1750.640625	15732.188477
1749.629883	15828.291992
1748.618164	15874.929688
1747.606445	15827.647461
1746.594727	15940.976562
1745.583008	15910.989258
1744.570312	16036.611328
1743.557617	15944.881836
1742.545898	15640.853516
1741.533203	15751.643555
1740.519531	15741.458008
1739.506836	15933.623047
1738.493164	15950.546875
1737.479492	16090.802734
1736.465820	15873.388672
1735.452148	15974.153320
1734.438477	15707.526367
1733.423828	15734.332031
1732.410156	16047.021484
1731.395508	15903.728516
1730.380859	15716.138672
1729.366211	16139.512695
1728.350586	16089.866211
1727.334961	15796.457031
1726.320312	15754.273438
1725.304688	15923.798828
1724.288086	15573.965820
1723.272461	16083.036133
1722.256836	15905.515625
1721.240234	15600.147461
1720.223633	16022.862305
1719.207031	15631.516602
1718.190430	15884.438477
1717.172852	15827.551758
1716.155273	15834.583984
1715.138672	15640.122070
1714.121094	15868.292969
1713.102539	15921.983398
1712.084961	15759.533203
1711.066406	15744.468750
1710.048828	15741.684570
1709.030273	15898.449219
1708.011719	15883.366211
1706.992188	15868.288086
1705.973633	16076.464844
1704.954102	15904.373047
1703.934570	15854.962891
1702.915039	15827.637695
1701.895508	15834.643555
1700.875977	15895.571289
1699.855469	15743.265625
1698.834961	15941.401367
1697.814453	15874.884766
1696.793945	15712.864258
1695.773438	15893.755859
1694.751953	15849.317383
1693.730469	15870.993164
1692.709961	15892.660156
1691.687500	15838.455078
1690.666016	16092.564453
1689.644531	15791.258789
1688.622070	15746.881836
1687.599609	15881.041992
1686.577148	15792.652344
1685.554688	15782.521484
1684.532227	15840.832031
1683.508789	15862.463867
1682.485352	15498.041016
1681.461914	15742.029297
1680.438477	15885.788086
1679.415039	15731.568359
1678.391602	15948.525391
1677.367188	15721.112305
1676.342773	15894.060547
1675.318359	15837.557617
1674.293945	15842.071289
1673.268555	15636.790039
1672.244141	15638.897461
1671.218750	15675.143555
1670.193359	15923.493164
1669.167969	15969.425781
1668.141602	15727.742188
1667.116211	15422.785156
1666.089844	15800.131836
1665.063477	15634.120117
1664.037109	15560.717773
1663.010742	15813.646484
1661.983398	15494.333008
1660.957031	15657.115234
1659.929688	15445.030273
1658.902344	15610.195312
1657.875000	15398.192383
1656.846680	15628.984375
1655.819336	15628.644531
1654.791016	15698.822266
1653.762695	15856.499023
1652.734375	15690.822266
1651.705078	15622.418945
1650.676758	15848.061523
1649.647461	15614.447266
1648.618164	15752.562500
1647.588867	15506.903320
1646.559570	15404.594727
1645.529297	15574.234375
1644.500000	15700.120117
1643.469727	15639.087891
1642.439453	15607.194336
1641.409180	15318.148438
1640.377930	15511.905273
1639.347656	15530.978516
1638.316406	15528.221680
1637.285156	15418.793945
1636.253906	15498.469727
1635.222656	15493.294922
1634.190430	15267.623047
1633.158203	15432.072266
1632.125977	15281.579102
1631.093750	15327.299805
1630.061523	15455.330078
1629.029297	15547.000000
1627.996094	15355.442383
1626.962891	15560.837891
1625.929688	15245.944336
1624.896484	15323.068359
1623.863281	15313.090820
1622.829102	15344.226562
1621.794922	15406.783203
1620.760742	15321.851562
1619.726562	15135.435547
1618.692383	15495.235352
1617.657227	15349.927734
1616.622070	15352.031250
1615.587891	15134.339844
1614.551758	15344.160156
1613.516602	15517.687500
1612.481445	15297.666992
1611.445312	15302.188477
1610.409180	15299.467773
1609.373047	15171.285156
1608.336914	15127.579102
1607.300781	15426.374023
1606.263672	15196.955078
1605.226562	15129.155273
1604.189453	15095.126953
1603.152344	15167.157227
1602.115234	14812.638672
1601.077148	15115.985352
1600.039062	15260.238281
1599.000977	15149.143555
1597.962891	15112.736328
1596.924805	15285.801758
1595.885742	15232.532227
1594.847656	15083.010742
1593.808594	15082.733398
1592.769531	15190.720703
1591.730469	15012.418945
1590.690430	15255.059570
1589.651367	15170.588867
1588.611328	15172.697266
1587.571289	15242.108398
1586.531250	15203.345703
1585.490234	15325.589844
1584.450195	15282.019531
1583.409180	15171.208008
1582.368164	15180.514648
1581.327148	15156.201172
1580.285156	15307.150391
1579.244141	15107.598633
1578.202148	15193.704102
1577.160156	15171.802734
1576.118164	15173.899414
1575.076172	15207.175781
1574.033203	15295.597656
1572.991211	15307.259766
1571.948242	15338.095703
1570.905273	15213.121094
1569.862305	15126.535156
1568.818359	15195.720703
1567.775391	14886.374023
1566.731445	15187.911133
1565.687500	15082.230469
1564.643555	15156.161133
1563.598633	15105.582031
1562.554688	15191.449219
1561.509766	15198.313477
1560.464844	15205.174805
1559.419922	15137.875000
1558.374023	15309.776367
1557.329102	15130.087891
1556.283203	15043.708008
1555.237305	15184.455078
1554.191406	15110.045898
1553.145508	15296.133789
1552.098633	15147.664062
1551.052734	15075.687500
1550.005859	15163.756836
1548.958984	15304.329102
1547.912109	15124.923828
1546.864258	15033.903320
1545.816406	14959.621094
1544.769531	15300.571289
1543.721680	15180.937500
1542.672852	15106.666992
1541.625000	15196.985352
1540.576172	15246.733398
1539.528320	15077.125000
1538.479492	15110.190430
1537.430664	15140.859375
1536.380859	15278.745117
1535.332031	15066.366211
1534.282227	15056.530273
1533.232422	15080.040039
1532.182617	15129.733398
1531.132812	15246.068359
1530.082031	14864.880859
1529.031250	14981.220703
1527.981445	15190.315430
1526.929688	14749.865234
1525.878906	14954.167969
1524.828125	14915.825195
1523.776367	14901.273438
1522.724609	14931.894531
1521.672852	15055.202148
1520.621094	15059.642578
1519.569336	14897.758789
1518.516602	15137.410156
1517.463867	14982.693359
1516.411133	15117.753906
1515.358398	15029.576172
1514.305664	15015.021484
1513.251953	14945.880859
1512.198242	14943.209961
1511.144531	15049.681641
1510.090820	14902.286133
1509.037109	15122.572266
1507.982422	15053.470703
1506.927734	15121.908203
1505.873047	14936.675781
1504.818359	14926.894531
1503.763672	14888.681641
1502.708984	14921.558594
1501.653320	14736.491211
1500.597656	14603.593750
1499.541992	14908.820312
1498.486328	14889.581055
1497.429688	14938.996094
1496.373047	14813.254883
1495.317383	14907.624023
1494.260742	14883.664062
1493.203125	14824.231445
1492.146484	14866.515625
1491.088867	14922.970703
1490.031250	14598.773438
1488.973633	14721.440430
1487.916016	14853.516602
1486.858398	14787.060547
1485.799805	14947.425781
1484.741211	14640.044922
1483.682617	14755.507812
1482.624023	14844.954102
1481.565430	14717.174805
1480.505859	14528.072266
1479.446289	14792.145508
1478.386719	14574.781250
1477.327148	14772.695312
1476.267578	14718.160156
1475.207031	14663.643555
1474.147461	14682.238281
1473.086914	14667.822266
1472.026367	14837.255859
1470.964844	14613.082031
1469.904297	14725.916016
1468.842773	14723.278320
1467.781250	14666.469727
1466.719727	14732.134766
1465.658203	14724.787109
1464.595703	14564.428711
1463.533203	14804.242188
1462.471680	14653.338867
1461.409180	14566.013672
1460.345703	14598.688477
1459.283203	14579.609375
1458.219727	14567.590820
1457.156250	14602.597656
1456.092773	14491.850586
1455.029297	14479.851562
1453.965820	14594.748047
1452.901367	14446.468750
1451.836914	14455.624023
1450.772461	14537.581055
1449.708008	14441.049805
1448.642578	14454.894531
1447.578125	14374.841797
1446.512695	14745.417969
1445.447266	14430.695312
1444.381836	14411.685547
1443.315430	14519.344727
1442.250000	14495.633789
1441.183594	14563.376953
1440.117188	14539.666016
1439.050781	14483.147461
1437.983398	14616.473633
1436.916992	14503.725586
1435.849609	14355.878906
1434.782227	14379.067383
1433.714844	14367.120117
1432.647461	14268.544922
1431.579102	14303.440430
1430.510742	14331.300781
1429.442383	14560.403320
1428.374023	14464.201172
1427.305664	14372.711914
1426.236328	14430.942383
1425.167969	14416.660156
1424.098633	14540.327148
1423.028320	14612.520508
1421.958984	14292.037109
1420.889648	14331.533203
1419.819336	14242.513672
1418.749023	14489.903320
1417.678711	14314.471680
1416.608398	14494.040039
1415.537109	14178.587891
1414.465820	14124.687500
1413.395508	14525.907227
1412.323242	14509.297852
1411.251953	14299.052734
1410.180664	14480.759766
1409.108398	14366.213867
1408.036133	14172.428711
1406.963867	14300.436523
1405.891602	14232.601562
1404.818359	14402.500977
1403.746094	14427.874023
1402.672852	14250.556641
1401.599609	14301.567383
1400.525391	14271.051758
1399.452148	14219.589844
1398.377930	14382.321289
1397.303711	14160.944336
1396.229492	14202.614258
1395.155273	14262.882812
1394.081055	14157.959961
1393.005859	14206.583984
1391.930664	14099.382812
1390.855469	14315.403320
1389.780273	14424.412109
1388.704102	14068.536133
1387.628906	14305.357422
1386.552734	14242.375977
1385.476562	14137.603516
1384.400391	14190.801758
1383.323242	14083.752930
1382.247070	14083.541016
1381.169922	14053.151367
1380.092773	14210.763672
1379.014648	13948.314453
1377.937500	14319.333008
1376.859375	13998.966797
1375.782227	13989.489258
1374.704102	14086.679688
1373.625000	13958.952148
1372.546875	14220.686523
1371.467773	14051.263672
1370.388672	14115.931641
1369.309570	13999.871094
1368.230469	14115.481445
1367.151367	14082.833984
1366.071289	14033.989258
1364.991211	14133.323242
1363.911133	14042.823242
1362.831055	13968.553711
1361.750977	14278.399414
1360.669922	13945.015625
1359.588867	14134.479492
1358.507812	14081.057617
1357.426758	13986.036133
1356.345703	14018.191406
1355.263672	13805.338867
1354.181641	14089.400391
1353.099609	13867.368164
1352.017578	14250.645508
1350.935547	14234.220703
1349.852539	14083.866211
1348.769531	14090.562500
1347.686523	14009.538086
1346.603516	13993.165039
1345.520508	14020.641602
1344.436523	14071.177734
1343.352539	14142.456055
1342.268555	14116.843750
1341.184570	13886.015625
1340.100586	14144.030273
1339.015625	14206.021484
1337.930664	14032.916016
1336.845703	14249.286133
1335.760742	14083.146484
1334.675781	13884.819336
1333.589844	14135.641602
1332.503906	14093.948242
1331.417969	14093.708008
1330.332031	14162.519531
1329.246094	14302.645508
1328.159180	14141.303711
1327.072266	14060.535156
1325.985352	14216.703125
1324.898438	14211.837891
1323.811523	14197.777344
1322.723633	14121.652344
1321.635742	14063.942383
1320.547852	14171.708008
1319.459961	13927.904297
1318.371094	14205.643555
1317.283203	14193.892578
1316.194336	14202.811523
1315.105469	14122.186523
1314.016602	14023.225586
1312.926758	13970.201172
1311.837891	13944.732422
1310.748047	14038.573242
1309.658203	14031.450195
1308.568359	14028.916016
1307.477539	13751.219727
1306.387695	13895.462891
1305.296875	13934.211914
1304.206055	13885.859375
1303.114258	13961.257812
1302.023438	14011.426758
1300.931641	13789.003906
1299.840820	13635.365234
1298.748047	13738.227539
1297.656250	13873.102539
1296.564453	13669.174805
1295.471680	13712.473633
1294.378906	13460.597656
1293.286133	13744.119141
1292.193359	13693.603516
1291.099609	13613.375977
1290.006836	13674.934570
1288.913086	13930.778320
1287.819336	13605.994141
1286.725586	13726.932617
1285.630859	13575.942383
1284.536133	13539.222656
1283.442383	13500.231445
1282.346680	13552.593750
1281.251953	13700.827148
1280.157227	13572.801758
1279.061523	13330.708008
1277.965820	13615.810547
1276.870117	13519.808594
1275.774414	13531.048828
1274.677734	13348.431641
1273.581055	13352.857422
1272.485352	13402.876953
1271.387695	13190.749023
1270.291016	13368.399414
1269.194336	13283.952148
1268.096680	13083.350586
1266.999023	13306.477539
1265.901367	13463.480469
1264.803711	13331.259766
1263.705078	13169.492188
1262.606445	13107.930664
1261.507812	13189.756836
1260.409180	13212.396484
1259.310547	13182.706055
1258.210938	13102.988281
1257.111328	13409.881836
1256.011719	13061.865234
1254.912109	13159.520508
1253.812500	13123.044922
1252.711914	13261.554688
1251.612305	13243.249023
1250.511719	13363.513672
1249.410156	13154.418945
1248.309570	13127.057617
1247.208008	13074.732422
1246.107422	13061.014648
1245.005859	13051.838867
1243.903320	13103.931641
1242.801758	12908.719727
1241.699219	12888.234375
1240.597656	12854.148438
1239.495117	12944.784180
1238.391602	12915.233398
1237.289062	13132.752930
1236.185547	12944.543945
1235.082031	13107.599609
1233.978516	12887.747070
1232.875000	12960.154297
1231.771484	13181.995117
1230.666992	13120.737305
1229.562500	13215.698242
1228.458008	13111.451172
1227.353516	12973.298828
1226.248047	13036.557617
1225.143555	12882.632812
1224.038086	12954.931641
1222.931641	13153.834961
1221.826172	12886.927734
1220.720703	13054.123047
1219.614258	13096.955078
1218.507812	12992.895508
1217.401367	12983.759766
1216.294922	13236.649414
1215.187500	12965.497070
1214.080078	13003.788086
1212.972656	12886.291016
1211.865234	12958.438477
1210.757812	12926.748047
1209.649414	12994.348633
1208.541016	13034.852539
1207.432617	12881.364258
1206.324219	12987.271484
1205.215820	12924.036133
1204.106445	13165.154297
1202.997070	12707.476562
1201.887695	12678.126953
1200.778320	12725.391602
1199.668945	13126.308594
1198.558594	13182.482422
1197.448242	12918.873047
1196.337891	12770.182617
1195.227539	12907.426758
1194.117188	12923.085938
1193.005859	13118.756836
1191.894531	12839.647461
1190.783203	12661.860352
1189.671875	12655.061523
1188.559570	12920.342773
1187.447266	12760.622070
1186.334961	12724.586914
1185.222656	12861.609375
1184.110352	12675.021484
1182.998047	12749.099609
1181.884766	12699.613281
1180.771484	12883.699219
1179.658203	12672.542969
1178.543945	12726.360352
1177.430664	12959.718750
1176.316406	12759.881836
1175.202148	12636.402344
1174.087891	12746.267578
1172.972656	12665.449219
1171.858398	12714.721680
1170.743164	12844.689453
1169.627930	12867.010742
1168.512695	12571.068359
1167.396484	12857.847656
1166.281250	12665.073242
1165.165039	12815.088867
1164.048828	12850.830078
1162.931641	12543.960938
1161.815430	12575.259766
1160.698242	12575.208984
1159.581055	12680.342773
1158.463867	12798.863281
1157.346680	12642.169922
1156.228516	12434.086914
1155.111328	12601.785156
1153.993164	12586.075195
1152.875000	12606.138672
1151.755859	12563.611328
1150.637695	12617.191406
1149.518555	12684.156250
1148.399414	12462.924805
1147.280273	12771.110352
1146.160156	12608.001953
1145.041016	12456.115234
1143.920898	12690.466797
1142.800781	12732.791992
1141.680664	12596.584961
1140.559570	12612.138672
1139.439453	12531.767578
1138.318359	12585.240234
1137.197266	12424.628906
1136.075195	12611.865234
1134.954102	12382.207031
1133.832031	12578.296875
1132.709961	12689.642578
1131.587891	12357.614258
1130.465820	12386.544922
1129.342773	12466.685547
1128.220703	12464.413086
1127.097656	12609.068359
1125.974609	12537.769531
1124.850586	12504.328125
1123.727539	12366.325195
1122.603516	12497.543945
1121.479492	12439.660156
1120.355469	12466.299805
1119.230469	12346.189453
1118.106445	12390.619141
1116.981445	12512.819336
1115.856445	12277.213867
1114.730469	12412.720703
1113.605469	12406.013672
1112.479492	12357.110352
1111.353516	12619.094727
1110.227539	12261.577148
1109.101562	12396.959961
1107.974609	12336.996094
1106.848633	12381.340820
1105.721680	12288.123047
1104.594727	12438.926758
1103.466797	12272.548828
1102.339844	12303.567383
1101.211914	12385.560547
1100.083984	12230.364258
1098.956055	12374.390625
1097.827148	12394.287109
1096.699219	12361.009766
1095.570312	12438.486328
1094.441406	12261.275391
1093.311523	12236.895508
1092.182617	12239.086914
1091.052734	12159.388672
1089.922852	12221.338867
1088.792969	12161.583984
1087.663086	12446.921875
1086.532227	12143.870117
1085.402344	12126.172852
1084.271484	12280.922852
1083.139648	12287.519531
1082.008789	12344.943359
1080.876953	12488.519531
1079.746094	12192.416992
1078.614258	12254.242188
1077.481445	12411.003906
1076.349609	12223.266602
1075.216797	12344.655273
1074.083984	12165.825195
1072.951172	12315.867188
1071.818359	12415.106445
1070.685547	12070.915039
1069.551758	12108.407227
1068.417969	12176.756836
1067.284180	12174.530273
1066.149414	12183.324219
1065.015625	12194.319336
1063.880859	11971.736328
1062.746094	12251.544922
1061.611328	12295.560547
1060.476562	12231.646484
1059.340820	12106.101562
1058.205078	12086.273438
1057.069336	12009.224609
1055.933594	12123.664062
1054.796875	12024.631836
1053.661133	12242.419922
1052.524414	12009.232422
1051.387695	12319.304688
1050.250000	12266.479492
1049.113281	12134.535156
1047.975586	12200.448242
1046.837891	12154.264648
1045.700195	12077.337891
1044.561523	12224.500000
1043.423828	12228.850586
1042.285156	12094.858398
1041.146484	12028.974609
1040.007812	12140.915039
1038.868164	12224.282227
1037.728516	12169.380859
1036.589844	11991.642578
1035.449219	12088.151367
1034.309570	12167.079102
1033.169922	12059.602539
1032.029297	12213.042969
1030.888672	12072.717773
1029.748047	12055.165039
1028.606445	12046.382812
1027.465820	11912.735352
1026.324219	11921.502930
1025.182617	11801.066406
1024.041016	11954.353516
1022.898438	12175.444336
1021.756836	11875.556641
1020.614258	12081.261719
1019.471680	11733.368164
1018.328125	11978.396484
1017.185547	12011.192383
1016.041992	11871.231445
1014.898438	11864.682617
1013.754883	11976.168945
1012.610352	11783.839844
1011.466797	12059.176758
1010.322266	11917.148438
1009.177734	11742.408203
1008.033203	11851.628906
1006.887695	11766.483398
1005.742188	11733.762695
1004.597656	11869.114258
1003.451172	11701.086914
1002.305664	11812.394531
1001.160156	11707.699219
1000.013672	11803.696289
998.867188	11904.018555
997.720703	11912.734375
996.573242	11980.301758
995.426758	11747.083984
994.279297	11816.833984
993.131836	11975.882812
991.983398	11771.108398
990.835938	11927.927734
989.687500	11849.527344
988.539062	11599.170898
987.390625	11779.876953
986.242188	11727.659180
985.092773	11790.780273
983.944336	11636.333984
982.794922	11784.272461
981.644531	11573.343750
980.495117	11684.277344
979.344727	11647.348633
978.194336	11879.938477
977.043945	11795.179688
975.893555	11810.393555
974.742188	11825.600586
973.591797	11801.708008
972.440430	11660.567383
971.289062	11747.435547
970.136719	11549.919922
968.985352	11882.011719
967.833008	11712.750000
966.680664	11673.715820
965.528320	11849.429688
964.375000	11871.105469
963.221680	11699.799805
962.069336	11602.263672
960.915039	11597.961914
959.761719	11782.193359
958.608398	11600.195312
957.454102	11658.715820
956.299805	11658.736328
955.145508	11587.296875
953.990234	11715.068359
952.834961	11600.350586
951.680664	11548.438477
950.525391	11598.245117
949.369141	11671.831055
948.213867	11691.313477
947.057617	11680.510742
945.901367	11771.337891
944.745117	11667.563477
943.588867	11596.249023
942.431641	11578.986328
941.274414	11693.530273
940.117188	11559.600586
938.959961	11676.264648
937.801758	11700.028320
936.644531	11544.579102
935.486328	11527.341797
934.328125	11734.572266
933.168945	11512.306641
932.010742	11525.288086
930.851562	11577.091797
929.692383	11514.571289
928.533203	11527.543945
927.373047	11467.210938
926.213867	11646.160156
925.053711	11480.225586
923.893555	11626.784180
922.732422	11504.000977
921.572266	11476.033203
920.411133	11620.356445
919.250000	11534.243164
918.088867	11588.087891
916.926758	11542.904297
915.765625	11553.688477
914.603516	11476.253906
913.441406	11467.684570
912.279297	11433.308594
911.116211	11381.742188
909.953125	11525.839844
908.790039	11420.535156
907.626953	11392.638672
906.463867	11343.264648
905.299805	11356.210938
904.135742	11394.926758
902.971680	11261.823242
901.807617	11375.692383
900.643555	11251.227539
899.478516	11476.666992
898.313477	11337.206055
897.148438	11255.727539
895.982422	11386.651367
894.817383	11296.613281
893.651367	11292.383789
892.485352	11305.307617
891.319336	11421.118164
890.152344	11215.405273
888.986328	11189.763672
887.819336	11367.660156
886.652344	11172.779297
885.484375	11211.407227
884.317383	11267.149414
883.149414	11316.448242
881.981445	11269.409180
880.813477	11370.049805
879.644531	11436.417969
878.475586	11342.317383
877.307617	11201.196289
876.137695	11122.141602
874.968750	11190.643555
873.798828	11263.393555
872.629883	11291.234375
871.459961	11148.113281
870.289062	11178.100586
869.119141	11259.341797
867.948242	11137.662109
866.777344	11291.480469
865.606445	11381.193359
864.435547	11285.170898
863.263672	11073.941406
862.092773	11246.858398
860.920898	11180.779297
859.748047	11072.065430
858.576172	11253.416016
857.403320	11185.238281
856.230469	11085.108398
855.057617	11181.100586
853.884766	11198.210938
852.710938	11055.522461
851.538086	11091.820312
850.364258	11153.661133
849.189453	11268.713867
848.015625	11247.467773
846.840820	11279.444336
845.666016	11200.741211
844.491211	11271.014648
843.316406	11311.476562
842.140625	11060.521484
840.965820	11396.607422
839.790039	11294.565430
838.613281	11273.341797
837.437500	11101.218750
836.260742	11120.414062
835.083984	11226.712891
833.907227	11267.119141
832.730469	11160.962891
831.552734	11173.759766
830.375977	11195.044922
829.198242	11059.241211
828.019531	11029.602539
826.841797	11190.946289
825.663086	11167.658203
824.484375	11097.713867
823.305664	11165.641602
822.126953	11205.979492
820.947266	11127.584961
819.767578	11282.369141
818.587891	11140.414062
817.408203	11244.288086
816.228516	10941.394531
815.047852	11240.120117
813.867188	11202.037109
812.686523	10996.709961
811.504883	10969.269531
810.324219	11151.363281
809.142578	11206.428711
807.960938	11043.562500
806.779297	11119.778320
805.596680	11231.917969
804.415039	11210.804688
803.232422	11071.311523
802.048828	11094.622070
800.866211	11043.958984
799.682617	11075.716797
798.500000	11044.086914
797.315430	11044.149414
796.131836	11135.015625
794.948242	11078.055664
793.763672	11046.447266
792.579102	10846.006836
791.394531	11168.955078
790.208984	11228.065430
789.024414	10985.514648
787.838867	11080.487305
786.653320	11044.693359
785.466797	11280.867188
784.281250	11105.934570
783.094727	10869.951172
781.908203	10893.216797
780.721680	10891.194336
779.534180	11139.812500
778.347656	10697.625000
777.160156	11015.665039
775.972656	11059.929688
774.784180	10841.095703
773.596680	11011.631836
772.408203	10990.651367
771.219727	11034.885742
770.031250	10976.051758
768.841797	10942.471680
767.653320	11068.679688
766.463867	10932.099609
765.274414	10864.920898
764.083984	11068.813477
762.894531	10970.121094
761.704102	11016.390625
760.513672	11092.041992
759.322266	10955.606445
758.131836	11014.446289
756.940430	10854.988281
755.749023	10886.544922
754.557617	10943.264648
753.365234	11018.841797
752.173828	10765.124023
750.981445	10901.513672
749.789062	10863.846680
748.595703	10972.916992
747.403320	10717.298828
746.209961	10845.212891
745.016602	11027.546875
743.823242	10811.855469
742.628906	10878.949219
741.435547	10868.549805
740.241211	10814.194336
739.046875	10810.088867
737.851562	10713.911133
736.657227	10783.050781
735.461914	10902.367188
734.266602	10791.584961
733.070312	10850.215820
731.875000	10789.658203
730.678711	10752.115234
729.482422	10779.371094
728.286133	10729.306641
727.089844	10570.629883
725.892578	10827.656250
724.695312	10660.665039
723.498047	10758.898438
722.300781	10911.369141
721.102539	10690.190430
719.904297	10838.442383
718.706055	10896.926758
717.507812	10736.365234
716.308594	10617.573242
715.110352	10694.831055
713.911133	10776.229492
712.711914	10697.098633
711.511719	10753.457031
710.311523	10711.864258
709.112305	10916.107422
707.912109	10780.770508
706.710938	10824.574219
705.510742	10845.458984
704.309570	10872.581055
703.108398	10789.382812
701.907227	10851.878906
700.705078	10749.991211
699.502930	10858.232422
698.301758	10752.220703
697.098633	11057.958984
695.896484	10652.578125
694.693359	10708.791016
693.491211	10725.497070
692.287109	10927.120117
691.083984	10636.321289
689.880859	10613.567383
688.676758	10702.958008
687.472656	11002.016602
686.268555	10792.377930
685.063477	10883.759766
683.858398	10728.171875
682.654297	10769.738281
681.448242	10809.213867
680.243164	10879.783203
679.037109	10844.575195
677.832031	10813.526367
676.625977	10911.000000
675.418945	10438.534180
674.212891	10720.447266
673.005859	10780.592773
671.798828	10778.579102
670.591797	10911.169922
669.383789	10687.594727
668.176758	10836.711914
666.968750	10851.245117
665.760742	10737.476562
664.551758	10820.294922
663.343750	10776.903320
662.134766	10801.775391
660.925781	10789.417969
659.715820	10655.091797
658.506836	10768.849609
657.296875	10894.963867
656.086914	10634.654297
654.876953	10694.640625
653.666016	10698.837891
652.456055	10688.577148
651.245117	10839.362305
650.034180	10612.332031
648.822266	10684.646484
647.611328	10651.696289
646.399414	10519.729492
645.187500	10528.075195
643.974609	10680.780273
642.762695	10489.083984
641.549805	10617.000000
640.336914	10625.319336
639.124023	10569.751953
637.910156	10658.431641
636.696289	10753.257812
635.483398	10615.310547
634.268555	10481.532227
633.054688	10520.748047
631.839844	10512.603516
630.625000	10658.817383
629.410156	10512.784180
628.195312	10603.394531
626.979492	10613.751953
625.764648	10484.258789
624.548828	10574.823242
623.332031	10531.727539
622.116211	10636.635742
620.899414	10655.193359
619.682617	10690.181641
618.465820	10721.046875
617.248047	10916.208008
616.031250	10819.704102
614.813477	10988.083008
613.595703	10944.970703
612.376953	10928.553711
611.159180	10877.259766
609.940430	10647.500977
608.721680	10700.886719
607.502930	10879.349609
606.283203	10594.356445
605.063477	10707.171875
603.843750	10666.221680
602.624023	10524.874023
601.403320	10477.827148
600.183594	10477.911133
598.962891	10574.254883
597.742188	10619.369141
596.520508	10494.539062
595.299805	10490.523438
594.078125	10412.833984
592.856445	10372.003906
591.633789	10525.538086
590.412109	10374.250000
589.189453	10237.333008
587.966797	10429.652344
586.743164	10276.421875
585.520508	10311.283203
584.296875	10550.478516
583.073242	10252.250000
581.849609	10289.137695
580.625000	10366.858398
579.401367	10344.493164
578.176758	10479.335938
576.952148	10305.910156
575.726562	10418.259766
574.500977	10385.698242
573.276367	10353.147461
572.049805	10300.212891
570.824219	10343.142578
569.598633	10161.779297
568.372070	10335.181641
567.145508	10449.413086
565.917969	10380.205078
564.691406	10327.322266
563.463867	10288.716797
562.236328	10309.186523
561.008789	10309.286133
559.780273	10154.663086
558.552734	10156.826172
557.324219	10197.653320
556.094727	10201.841797
554.866211	10210.095703
553.636719	10171.566406
552.407227	10336.403320
551.177734	10230.770508
549.948242	10255.273438
548.717773	10157.824219
547.488281	10287.994141
546.256836	10182.447266
545.026367	10198.814453
543.795898	10209.082031
542.564453	10306.654297
541.333008	10105.768555
540.100586	10254.065430
538.869141	10175.022461
537.636719	10089.922852
536.404297	10159.024414
535.171875	10260.549805
533.939453	10100.451172
532.706055	9980.960938
531.472656	10052.056641
530.239258	10082.591797
529.004883	10125.272461
527.771484	10026.124023
526.537109	10036.389648
525.302734	9923.119141
524.067383	10208.765625
522.833008	9959.871094
521.597656	9779.885742
520.362305	9820.540039
519.126953	9899.620117
517.890625	9948.327148
516.654297	9970.723633
515.417969	10047.707031
514.181641	9962.924805
512.944336	9902.430664
511.708008	9843.978516
510.470703	10155.310547
509.233398	9965.521484
507.995117	9894.970703
506.756836	9953.689453
505.518555	10048.727539
504.280273	10062.983398
503.041992	10042.922852
501.802734	9936.099609
500.563477	10142.031250
499.324219	9898.063477
498.084961	10039.387695
496.844727	10126.214844
495.604492	10156.562500
494.364258	9848.274414
493.124023	9929.041992
491.882812	9967.466797
490.642578	9903.139648
489.401367	10020.103516
488.159180	10070.570312
486.917969	9760.630859
485.675781	10159.367188
484.433594	9913.929688
483.191406	9863.767578
481.948242	9942.378906
480.705078	9843.954102
479.462891	9882.318359
478.218750	9916.645508
476.975586	9776.064453
475.731445	10021.439453
474.487305	9808.546875
473.243164	9925.235352
471.999023	9943.450195
470.753906	9823.077148
469.508789	9887.488281
468.263672	9885.621094
467.018555	9753.283203
465.772461	9825.696289
464.526367	9841.899414
463.280273	9874.145508
462.034180	9880.303711
460.787109	9639.798828
459.540039	9730.208008
458.292969	9812.563477
457.045898	9878.853516
455.797852	9973.172852
454.550781	9919.198242
453.302734	9853.224609
452.053711	9739.210938
450.805664	9729.361328
449.556641	9631.428711
448.307617	9769.719727
447.058594	9803.894531
445.808594	9724.009766
444.559570	9696.166016
443.309570	9608.330078
442.059570	9770.488281
440.808594	9744.649414
439.557617	9616.874023
438.307617	9511.130859
437.055664	9619.231445
435.804688	9687.335938
434.552734	9623.583984
433.300781	9559.855469
432.048828	9753.720703
430.796875	9548.253906
429.543945	9754.022461
428.291016	9624.462891
427.038086	9506.922852
425.785156	9864.184570
424.531250	9846.363281
423.278320	9858.458008
422.023438	9725.011719
420.769531	9812.868164
419.515625	9852.861328
418.260742	10082.128906
417.005859	9978.621094
415.750000	10142.047852
414.495117	10269.568359
413.239258	10259.659180
411.983398	10365.210938
410.727539	10548.341797
409.470703	10271.741211
408.214844	10092.730469
406.958008	10021.200195
405.700195	9824.405273
404.443359	9649.555664
403.185547	9508.568359
401.927734	9667.763672
400.669922	9614.263672
399.411133	9638.271484
398.153320	9606.648438
396.894531	9491.619141
395.635742	9444.148438
394.375977	9424.491211
393.116211	9484.239258
391.857422	9436.794922
390.596680	9532.233398
389.336914	9341.960938
388.076172	9391.759766
386.815430	9263.060547
385.554688	9289.062500
384.293945	9317.037109
383.032227	9222.117188
381.770508	9382.859375
380.508789	9422.685547
379.247070	9369.396484
377.984375	9339.892578
376.721680	9482.666992
375.458984	9312.592773
374.196289	9382.082031
372.932617	9297.185547
371.668945	9190.555664
370.405273	9232.333008
369.141602	9244.425781
367.876953	9201.144531
366.613281	9203.351562
365.347656	9276.720703
364.083008	9219.622070
362.818359	9079.553711
361.552734	9062.025391
360.287109	9313.132812
359.020508	8904.547852
357.754883	9048.966797
356.488281	9102.523438
355.221680	9357.376953
353.955078	9099.066406
352.687500	9093.391602
351.419922	9064.047852
350.152344	9054.437500
348.884766	9082.294922
347.616211	9007.625000
346.348633	9086.728516
345.080078	8994.348633
343.810547	8943.381836
342.541992	9055.939453
341.272461	9190.121094
340.002930	8806.345703
338.733398	9021.244141
337.462891	9007.718750
336.193359	9108.347656
334.922852	8986.584961
333.651367	8996.680664
332.380859	8985.134766
331.109375	9005.058594
329.837891	8918.798828
328.566406	8873.853516
327.293945	8968.474609
326.022461	8943.187500
324.750000	8917.909180
323.477539	8920.141602
322.204102	9002.896484
320.930664	8895.148438
319.657227	8932.720703
318.383789	8919.244141
317.110352	8986.233398
315.835938	8929.583984
314.561523	9063.245117
313.287109	9014.447266
312.011719	8991.160156
310.737305	8981.606445
309.461914	8942.651367
308.185547	9166.334961
306.910156	9350.742188
305.633789	9221.618164
304.357422	9533.263672
303.081055	9537.323242
301.804688	9911.444336
300.527344	9960.455078
299.250000	10148.413086
297.972656	10156.264648
296.694336	10283.459961
295.416992	10527.974609
294.138672	10725.458008
292.860352	11136.003906
291.581055	10780.021484
290.301758	10191.571289
289.022461	9814.406250
287.743164	9331.874023
286.463867	9224.604492
285.183594	9050.967773
283.903320	9021.903320
282.623047	8871.798828
281.342773	8797.881836
280.061523	8632.263672
278.780273	8560.371094
277.499023	8531.425781
276.216797	8689.744141
274.935547	8574.976562
273.653320	8563.591797
272.370117	8684.773438
271.087891	8472.617188
269.804688	8529.461914
268.521484	8422.624023
267.238281	8606.073242
265.955078	8477.837891
264.670898	8361.334961
263.386719	8472.656250
262.102539	8519.701172
260.817383	8512.236328
259.533203	8477.534180
258.248047	8497.315430
256.962891	8764.100586
255.676758	8602.969727
254.390625	8717.981445
253.104492	8661.888672
251.818359	8467.828125
250.532227	8604.172852
249.245117	8676.354492
247.958008	8633.907227
246.670898	8682.750977
245.382812	8556.827148
244.095703	8547.427734
242.807617	8485.626953
241.518555	8396.681641
240.230469	8259.265625
238.941406	8484.643555
237.652344	8521.810547
236.363281	8182.787109
235.074219	8289.789062
233.784180	8263.006836
232.494141	8416.462891
231.204102	8649.298828
229.913086	8907.230469
228.622070	9445.901367
227.331055	9990.176758
226.040039	10381.291992
224.749023	9566.305664
223.457031	8817.433594
222.165039	8316.523438
220.873047	8456.159180
219.580078	8268.854492
218.287109	8203.456055
216.994141	8004.669922
215.701172	8105.594238
214.407227	7910.767578
213.114258	7965.293457
211.820312	7907.740723
210.525391	7919.749023
209.231445	7952.996094
207.936523	7779.623535
206.641602	7619.830566
205.346680	7784.366211
204.050781	7829.191406
202.754883	7854.704590
201.458984	7928.434082
200.163086	7801.550781
198.866211	7989.032715
197.569336	7709.877441
196.272461	7635.152832
194.975586	7656.817383
193.677734	7717.009766
192.379883	7821.487793
191.082031	7685.162109
189.784180	7608.585938
188.485352	7603.277832
187.187500	7580.645996
185.887695	7584.967285
184.588867	7602.756348
183.289062	7532.039062
181.989258	7690.248047
180.689453	7525.306152
179.389648	7558.473633
178.088867	7624.309570
176.788086	7499.836914
175.487305	7534.910645
174.186523	7495.040039
172.884766	7499.365723
171.583008	7497.927734
170.281250	7638.584961
168.979492	7410.579102
167.676758	7426.433105
166.374023	7549.750000
165.071289	7467.715332
163.767578	7519.996582
162.463867	7363.196289
161.160156	7411.642090
159.856445	7460.068848
158.552734	7357.041504
157.248047	7146.728516
155.943359	7363.798828
154.638672	7327.901367
153.333008	7280.524902
152.027344	7390.200684
150.721680	7352.402832
149.416016	7435.221191
148.110352	7251.968262
146.803711	7196.995605
145.497070	7195.613281
144.189453	7175.103027
142.882812	7363.061035
141.575195	7245.007812
140.267578	7132.734863
138.959961	7223.110840
137.651367	7043.999023
136.342773	7151.552734
135.034180	7090.959961
133.725586	6942.534180
132.416016	7038.587402
131.106445	7077.327637
129.796875	6804.916016
128.487305	6725.361816
127.176758	6605.768555
125.866211	6497.666504
124.555664	6299.960938
123.244141	6357.866211
121.933594	6308.978516
120.622070	6000.860352
119.309570	5931.094727
117.998047	5771.796387
116.685547	5452.527344
115.373047	5047.665527
114.060547	4534.407227
112.748047	3939.472656
111.434570	3426.624756
110.121094	2917.780762
108.806641	2350.140869
107.493164	1912.094849
106.178711	1428.564087
104.864258	1135.404297
103.549805	855.667725
102.234375	619.764404
100.918945	429.569916
99.603516	292.659454
